199.8780	0.0515
200.1320	0.0542
200.3850	0.0001
200.6390	0.0114
200.8920	0.0397
201.1460	0.0262
201.4000	0.0164
201.6530	0.0192
201.9070	0.0342
202.1610	0.0009
202.4140	-0.0077
202.6680	0.0427
202.9220	0.0344
203.1750	0.0279
203.4290	0.0063
203.6830	0.0441
203.9360	0.0721
204.1900	0.0369
204.4430	0.0927
204.6970	0.1110
204.9510	0.0446
205.2040	0.0098
205.4580	0.0299
205.7120	0.0622
205.9650	0.0326
206.2190	0.0282
206.4730	0.0322
206.7260	0.0277
206.9800	0.0592
207.2330	0.0218
207.4870	-0.0083
207.7410	0.0189
207.9940	0.0459
208.2480	0.0475
208.5020	0.0197
208.7550	0.0282
209.0090	0.0725
209.2630	0.0885
209.5160	0.0311
209.7700	0.0089
210.0240	0.0324
210.2770	0.0292
210.5310	0.0043
210.7840	-0.0061
211.0380	0.0051
211.2920	-0.0092
211.5450	-0.0028
211.7990	0.0665
212.0530	0.1008
212.3060	0.0748
212.5600	0.0213
212.8140	0.0154
213.0670	0.0152
213.3210	0.0267
213.5750	0.0293
213.8280	0.0474
214.0820	0.0934
214.3350	0.0446
214.5890	0.0195
214.8430	0.0296
215.0960	0.0838
215.3500	0.0592
215.6040	0.0461
215.8570	0.0258
216.1110	0.0371
216.3650	0.0142
216.6180	0.0069
216.8720	0.0278
217.1260	0.0159
217.3790	0.0370
217.6330	0.0135
217.8860	0.0315
218.1400	0.0322
218.3940	0.0140
218.6470	0.0096
218.9010	0.0123
219.1550	0.0457
219.4080	0.0123
219.6620	-0.0085
219.9160	0.0283
220.1690	0.0541
220.4230	0.0475
220.6770	0.0389
220.9300	0.0115
221.1840	0.0028
221.4370	-0.0095
221.6910	-0.0081
221.9450	0.0125
222.1980	0.0231
222.4520	0.0375
222.7060	0.0590
222.9590	0.0492
223.2130	0.0564
223.4670	0.0399
223.7200	0.0482
223.9740	0.0542
224.2280	0.0262
224.4810	0.0388
224.7350	0.0257
224.9880	0.0393
225.2420	0.0898
225.4960	0.0591
225.7490	0.0859
226.0030	0.0847
226.2570	0.0444
226.5100	0.0059
226.7640	0.0638
227.0180	0.0701
227.2710	0.0638
227.5250	0.0394
227.7790	0.0139
228.0320	0.0444
228.2860	0.0867
228.5390	0.0575
228.7930	0.0207
229.0470	0.0432
229.3000	0.1127
229.5540	0.1130
229.8080	0.0527
230.0610	0.0561
230.3150	0.0694
230.5690	0.0181
230.8220	0.0228
231.0760	0.0436
231.3300	0.0379
231.5830	0.0469
231.8370	0.0149
232.0900	0.0148
232.3440	0.0279
232.5980	0.0366
232.8510	0.0538
233.1050	0.0403
233.3590	0.1109
233.6120	0.0595
233.8660	0.0271
234.1200	0.0395
234.3730	0.0875
234.6270	0.0698
234.8800	0.0113
235.1340	0.0198
235.3880	0.1071
235.6410	0.0550
235.8950	0.0026
236.1490	0.0193
236.4020	0.0426
236.6560	0.0554
236.9100	0.0082
237.1630	0.0433
237.4170	0.0412
237.6710	-0.0037
237.9240	0.0207
238.1780	0.0474
238.4310	0.0380
238.6850	0.0185
238.9390	0.0404
239.1920	0.0269
239.4460	0.0761
239.7000	0.0551
239.9530	-0.0004
240.2070	0.0416
240.4610	0.0587
240.7140	0.0393
240.9680	0.0274
241.2220	0.0226
241.4750	0.0282
241.7290	0.0138
241.9820	0.0231
242.2360	0.0659
242.4900	0.0521
242.7430	0.0334
242.9970	0.1204
243.2510	0.0621
243.5040	0.0426
243.7580	0.0094
244.0120	0.0163
244.2650	0.1140
244.5190	0.0994
244.7730	0.0304
245.0260	0.0256
245.2800	0.0406
245.5330	0.0726
245.7870	0.0400
246.0410	0.0338
246.2940	0.0756
246.5480	0.0556
246.8020	0.0363
247.0550	0.0471
247.3090	0.0899
247.5630	0.0685
247.8160	0.0462
248.0700	0.0585
248.3240	0.1066
248.5770	0.0552
248.8310	0.0099
249.0840	0.0371
249.3380	0.0450
249.5920	0.0622
249.8450	0.0245
250.0990	0.0543
250.3530	0.0824
250.6060	0.0524
250.8600	0.0137
251.1140	-0.0035
251.3670	0.0794
251.6210	0.0739
251.8750	0.0447
252.1280	0.0560
252.3820	0.0699
252.6350	0.0634
252.8890	0.0426
253.1430	0.0132
253.3960	0.0455
253.6500	0.0788
253.9040	0.0391
254.1590	0.0057
254.4130	0.0563
254.6670	0.0983
254.9220	0.1034
255.1760	0.1054
255.4310	0.0519
255.6850	0.0473
255.9390	0.0601
256.1940	0.0183
256.4480	0.0183
256.7020	0.0347
256.9570	0.0498
257.2110	0.0529
257.4650	0.0721
257.7200	0.2061
257.9740	0.1310
258.2280	0.0728
258.4830	0.0392
258.7370	0.0332
258.9920	0.0482
259.2460	0.0454
259.5000	0.0495
259.7550	0.0793
260.0090	0.0780
260.2630	0.0414
260.5180	0.0571
260.7720	0.0554
261.0260	0.0278
261.2810	0.0177
261.5350	0.0289
261.7890	0.0393
262.0440	0.0190
262.2980	0.0801
262.5530	0.0740
262.8070	0.0369
263.0610	0.0153
263.3160	0.0446
263.5700	0.0752
263.8240	0.0382
264.0790	0.0279
264.3330	0.0126
264.5870	0.0144
264.8420	0.1044
265.0960	0.0799
265.3510	0.0947
265.6050	0.0995
265.8590	0.0611
266.1140	0.0407
266.3680	0.0500
266.6220	0.0541
266.8770	0.0650
267.1310	0.0510
267.3850	0.0698
267.6400	0.0501
267.8940	0.0467
268.1480	0.0228
268.4030	0.0375
268.6570	0.0445
268.9120	0.0296
269.1660	0.0162
269.4200	0.0418
269.6750	0.0694
269.9290	0.0647
270.1830	0.0635
270.4380	0.0638
270.6920	0.0628
270.9460	0.0557
271.2010	0.1106
271.4550	0.0511
271.7090	0.0221
271.9640	0.0494
272.2180	0.0230
272.4730	0.0022
272.7270	0.0583
272.9810	0.0816
273.2360	0.0336
273.4900	0.0311
273.7440	0.0582
273.9990	0.0780
274.2530	0.0365
274.5070	0.0162
274.7620	0.0400
275.0160	0.0497
275.2710	0.0707
275.5250	0.0554
275.7790	0.0383
276.0340	0.0345
276.2880	0.0288
276.5420	0.0562
276.7970	0.0794
277.0510	0.0779
277.3050	0.1065
277.5600	0.0656
277.8140	0.0518
278.0680	0.0892
278.3230	0.0489
278.5770	0.0511
278.8320	0.0995
279.0860	0.1073
279.3400	0.1181
279.5950	0.0780
279.8490	0.0803
280.1030	0.0695
280.3580	0.0691
280.6120	0.0669
280.8660	0.0653
281.1210	0.0691
281.3750	0.0335
281.6290	0.0224
281.8840	0.0803
282.1380	0.1148
282.3930	0.0869
282.6470	0.0756
282.9010	0.0866
283.1560	0.0615
283.4100	0.0829
283.6640	0.0602
283.9190	0.0625
284.1730	0.0519
284.4270	0.0555
284.6820	0.0520
284.9360	0.0718
285.1910	0.0828
285.4450	0.0834
285.6990	0.0623
285.9540	0.0401
286.2080	0.0736
286.4620	0.0938
286.7170	0.0623
286.9710	0.1154
287.2250	0.1445
287.4800	0.0557
287.7340	0.0178
287.9880	0.0828
288.2430	0.1306
288.4970	0.0606
288.7520	0.0425
289.0060	0.1126
289.2600	0.0728
289.5150	0.0517
289.7690	0.0510
290.0230	0.0829
290.2780	0.0929
290.5320	0.0894
290.7860	0.0676
291.0410	0.1071
291.2950	0.1157
291.5490	0.0591
291.8040	0.0580
292.0580	0.0834
292.3130	0.0671
292.5670	0.0606
292.8210	0.0572
293.0760	0.0903
293.3300	0.1162
293.5840	0.1359
293.8390	0.0716
294.0930	0.0477
294.3470	0.0663
294.6020	0.0805
294.8560	0.0697
295.1110	0.0423
295.3650	0.0539
295.6190	0.0808
295.8740	0.0693
296.1280	0.0756
296.3820	0.1157
296.6370	0.1145
296.8910	0.0624
297.1450	0.0828
297.4000	0.1564
297.6540	0.1309
297.9080	0.0966
298.1630	0.0828
298.4170	0.0675
298.6720	0.0419
298.9260	0.0652
299.1800	0.0903
299.4350	0.0994
299.6890	0.0654
299.9430	0.0557
300.1980	0.0987
300.4520	0.1394
300.7060	0.1251
300.9610	0.1368
301.2150	0.1121
301.4690	0.1411
301.7240	0.1121
301.9780	0.1101
302.2330	0.1336
302.4870	0.1654
302.7410	0.1641
302.9960	0.1114
303.2500	0.1446
303.5040	0.1919
303.7590	0.1402
304.0130	0.1448
304.2670	0.1917
304.5220	0.1563
304.7760	0.1236
305.0310	0.1094
305.2850	0.1099
305.5390	0.1330
305.7940	0.1063
306.0480	0.0950
306.3020	0.1831
306.5570	0.1638
306.8110	0.1504
307.0650	0.1566
307.3200	0.1733
307.5740	0.1482
307.8280	0.1157
308.0830	0.1297
308.3370	0.1369
308.5920	0.1518
308.8460	0.1813
309.1000	0.1535
309.3550	0.2128
309.6090	0.2184
309.8630	0.1661
310.1180	0.1203
310.3720	0.1576
310.6260	0.1732
310.8810	0.1453
311.1350	0.1516
311.3890	0.1684
311.6440	0.1629
311.8980	0.1411
312.1530	0.1770
312.4070	0.2144
312.6610	0.2083
312.9160	0.1618
313.1700	0.1217
313.4290	0.1746
313.6880	0.2037
313.9470	0.1751
314.2060	0.1352
314.4650	0.1628
314.7240	0.1785
314.9830	0.1920
315.2420	0.1600
315.5010	0.1606
315.7600	0.1646
316.0190	0.1869
316.2780	0.1673
316.5360	0.1515
316.7950	0.1716
317.0540	0.1758
317.3130	0.2568
317.5720	0.2166
317.8310	0.1884
318.0900	0.1479
318.3490	0.1419
318.6080	0.2161
318.8670	0.1921
319.1260	0.2028
319.3850	0.1721
319.6440	0.2122
319.9030	0.1979
320.1620	0.1482
320.4210	0.1330
320.6800	0.1377
320.9390	0.1950
321.1980	0.1565
321.4570	0.1446
321.7160	0.1543
321.9750	0.1908
322.2340	0.2004
322.4930	0.1925
322.7520	0.2164
323.0100	0.2201
323.2690	0.2092
323.5280	0.1832
323.7870	0.1706
324.0460	0.1542
324.3050	0.1714
324.5640	0.1390
324.8230	0.1530
325.0820	0.1689
325.3410	0.1735
325.6000	0.1471
325.8590	0.1269
326.1180	0.1585
326.3770	0.1684
326.6360	0.1807
326.8950	0.2392
327.1540	0.2281
327.4130	0.1465
327.6720	0.1447
327.9310	0.2187
328.1900	0.2382
328.4490	0.2203
328.7080	0.1655
328.9670	0.1594
329.2260	0.1667
329.4850	0.1915
329.7430	0.2230
330.0020	0.2430
330.2610	0.2048
330.5200	0.1822
330.7790	0.1831
331.0380	0.1881
331.2970	0.1578
331.5560	0.1232
331.8150	0.1251
332.0740	0.1499
332.3330	0.1728
332.5920	0.1720
332.8510	0.1515
333.1100	0.1615
333.3690	0.1570
333.6280	0.1403
333.8870	0.2004
334.1460	0.2118
334.4050	0.1991
334.6640	0.1985
334.9230	0.1637
335.1820	0.1764
335.4410	0.1950
335.7000	0.2005
335.9590	0.1895
336.2170	0.1674
336.4760	0.1844
336.7350	0.2044
336.9940	0.1909
337.2530	0.2244
337.5120	0.2036
337.7710	0.1980
338.0300	0.2108
338.2890	0.2337
338.5480	0.1933
338.8070	0.1872
339.0660	0.2069
339.3250	0.1800
339.5840	0.1888
339.8430	0.1967
340.1020	0.1905
340.3610	0.1990
340.6200	0.2150
340.8790	0.2232
341.1380	0.2178
341.3970	0.1980
341.6560	0.1885
341.9150	0.1837
342.1740	0.2219
342.4330	0.2117
342.6910	0.2004
342.9500	0.1984
343.2090	0.1670
343.4680	0.2213
343.7270	0.2128
343.9860	0.1875
344.2450	0.1699
344.5040	0.2204
344.7630	0.2494
345.0220	0.1914
345.2810	0.1744
345.5400	0.1884
345.7990	0.2052
346.0580	0.2150
346.3170	0.2049
346.5760	0.2453
346.8350	0.2258
347.0940	0.1880
347.3530	0.1917
347.6120	0.1962
347.8710	0.2349
348.1300	0.2382
348.3890	0.2169
348.6480	0.2362
348.9070	0.2249
349.1660	0.1939
349.4240	0.1936
349.6830	0.2146
349.9420	0.2506
350.2010	0.2396
350.4600	0.2401
350.7190	0.2567
350.9780	0.2380
351.2370	0.2090
351.4960	0.1924
351.7550	0.2302
352.0140	0.2494
352.2730	0.2135
352.5320	0.2131
352.7910	0.2637
353.0500	0.2348
353.3090	0.1946
353.5680	0.1957
353.8270	0.2307
354.0860	0.2619
354.3450	0.2727
354.6040	0.2321
354.8630	0.2525
355.1220	0.2631
355.3810	0.2617
355.6400	0.2426
355.8980	0.3226
356.1570	0.3303
356.4160	0.2726
356.6750	0.2958
356.9340	0.2960
357.1930	0.2887
357.4520	0.2855
357.7110	0.2765
357.9700	0.2890
358.2290	0.2673
358.4880	0.2808
358.7470	0.2368
359.0060	0.2617
359.2650	0.3017
359.5240	0.2528
359.7830	0.2495
360.0420	0.2514
360.3010	0.3105
360.5600	0.2743
360.8190	0.2640
361.0780	0.2535
361.3370	0.2759
361.5960	0.2917
361.8550	0.2664
362.1140	0.2938
362.3720	0.3111
362.6310	0.2581
362.8900	0.2765
363.1490	0.2916
363.4080	0.3175
363.6670	0.3056
363.9260	0.2805
364.1850	0.2868
364.4440	0.2942
364.7030	0.2763
364.9620	0.3060
365.2210	0.3639
365.4800	0.3370
365.7390	0.3347
365.9990	0.3339
366.2580	0.3176
366.5180	0.3124
366.7770	0.2902
367.0370	0.3480
367.2960	0.3355
367.5560	0.3368
367.8150	0.3451
368.0750	0.3498
368.3340	0.3415
368.5940	0.3384
368.8530	0.3616
369.1130	0.3380
369.3720	0.3247
369.6320	0.3773
369.8910	0.3633
370.1500	0.3216
370.4100	0.3690
370.6690	0.3912
370.9290	0.3306
371.1880	0.3312
371.4480	0.3654
371.7070	0.4174
371.9670	0.3706
372.2260	0.3513
372.4860	0.4408
372.7450	0.4231
373.0050	0.4165
373.2640	0.3604
373.5240	0.3706
373.7830	0.3685
374.0430	0.4163
374.3020	0.3947
374.5610	0.4253
374.8210	0.3974
375.0800	0.3994
375.3400	0.4270
375.5990	0.4260
375.8590	0.4475
376.1180	0.4123
376.3780	0.3957
376.6370	0.4570
376.8970	0.4623
377.1560	0.4153
377.4160	0.4097
377.6750	0.4036
377.9350	0.4411
378.1940	0.4597
378.4540	0.4629
378.7130	0.4768
378.9720	0.4626
379.2320	0.4473
379.4910	0.4502
379.7510	0.4626
380.0100	0.4819
380.2700	0.4541
380.5290	0.4437
380.7890	0.4871
381.0480	0.4879
381.3080	0.4640
381.5670	0.4608
381.8270	0.4802
382.0860	0.4545
382.3460	0.4639
382.6050	0.4527
382.8650	0.4847
383.1240	0.5229
383.3830	0.5064
383.6430	0.5428
383.9020	0.5358
384.1620	0.5082
384.4210	0.4705
384.6810	0.5490
384.9400	0.6130
385.2000	0.5667
385.4590	0.5377
385.7190	0.5065
385.9780	0.4980
386.2380	0.5328
386.4970	0.5160
386.7570	0.4830
387.0160	0.5543
387.2760	0.5839
387.5350	0.5602
387.7940	0.5717
388.0540	0.5658
388.3130	0.5897
388.5730	0.5479
388.8320	0.5453
389.0920	0.5604
389.3510	0.5680
389.6110	0.5701
389.8700	0.5899
390.1300	0.6086
390.3890	0.6128
390.6490	0.5785
390.9080	0.5392
391.1680	0.5871
391.4270	0.6438
391.6860	0.6450
391.9460	0.5944
392.2050	0.6185
392.4650	0.6482
392.7240	0.5977
392.9840	0.6257
393.2430	0.6612
393.5030	0.6566
393.7620	0.6325
394.0220	0.5995
394.2810	0.5967
394.5410	0.6061
394.8000	0.6248
395.0600	0.6197
395.3190	0.6429
395.5790	0.6234
395.8380	0.6092
396.0970	0.6354
396.3570	0.6983
396.6160	0.6559
396.8760	0.6275
397.1350	0.6085
397.3950	0.6034
397.6540	0.6410
397.9140	0.7372
398.1730	0.7131
398.4330	0.7043
398.6920	0.7031
398.9520	0.6991
399.2110	0.6650
399.4710	0.7090
399.7300	0.6925
399.9900	0.6985
400.2490	0.6775
400.5080	0.6692
400.7680	0.6635
401.0270	0.6711
401.2870	0.7110
401.5460	0.7023
401.8060	0.7053
402.0650	0.7435
402.3250	0.7083
402.5840	0.7626
402.8440	0.7338
403.1030	0.6974
403.3630	0.7981
403.6220	0.7399
403.8820	0.7203
404.1410	0.7304
404.4010	0.8037
404.6600	0.7676
404.9260	0.7294
405.1930	0.7371
405.4590	0.7377
405.7260	0.7173
405.9920	0.7039
406.2590	0.7104
406.5250	0.7115
406.7920	0.7586
407.0580	0.7582
407.3250	0.7140
407.5910	0.7347
407.8580	0.7729
408.1240	0.7874
408.3910	0.7438
408.6570	0.7220
408.9240	0.7474
409.1900	0.7785
409.4570	0.8221
409.7230	0.7814
409.9900	0.7944
410.2560	0.8222
410.5230	0.7625
410.7890	0.7538
411.0560	0.7827
411.3220	0.7614
411.5890	0.7387
411.8550	0.7890
412.1220	0.7976
412.3880	0.7795
412.6550	0.7530
412.9210	0.7461
413.1880	0.8064
413.4540	0.8671
413.7210	0.7893
413.9870	0.7824
414.2540	0.7970
414.5200	0.7947
414.7870	0.7712
415.0530	0.8056
415.3200	0.8184
415.5860	0.8261
415.8530	0.8121
416.1190	0.7979
416.3860	0.8113
416.6520	0.7935
416.9190	0.8054
417.1850	0.7798
417.4520	0.8307
417.7180	0.8738
417.9850	0.8355
418.2510	0.8069
418.5180	0.8287
418.7840	0.8013
419.0510	0.8020
419.3170	0.8162
419.5840	0.8329
419.8500	0.8402
420.1170	0.8200
420.3830	0.7893
420.6500	0.7950
420.9160	0.8292
421.1830	0.8035
421.4490	0.8191
421.7160	0.8469
421.9820	0.8658
422.2490	0.8344
422.5150	0.8715
422.7820	0.8804
423.0480	0.8731
423.3150	0.8941
423.5810	0.8688
423.8480	0.9174
424.1140	0.9278
424.3810	0.8586
424.6470	0.8675
424.9140	0.8667
425.1800	0.8582
425.4470	0.8672
425.7130	0.8832
425.9800	0.9363
426.2460	0.9465
426.5130	0.8779
426.7790	0.8179
427.0460	0.8399
427.3120	0.8937
427.5790	0.8612
427.8450	0.8576
428.1120	0.8838
428.3780	0.9125
428.6450	1.0071
428.9110	0.8951
429.1780	0.8696
429.4440	0.8721
429.7110	0.8709
429.9770	0.8371
430.2440	0.8815
430.5100	0.8939
430.7770	0.8937
431.0430	0.9081
431.3100	0.9134
431.5760	0.8859
431.8430	0.9247
432.1090	0.8948
432.3760	0.8782
432.6420	0.9319
432.9090	0.9090
433.1750	0.8702
433.4420	0.8677
433.7080	0.9590
433.9750	0.9979
434.2410	0.9346
434.5080	0.9296
434.7740	0.9113
435.0410	0.9167
435.3070	0.8777
435.5740	0.9024
435.8400	0.9255
436.1100	0.9657
436.3790	0.9386
436.6490	0.9289
436.9180	0.9428
437.1880	0.9680
437.4570	0.9267
437.7270	0.8877
437.9960	0.9074
438.2660	0.8810
438.5350	0.8992
438.8050	0.9324
439.0740	0.9272
439.3440	0.9136
439.6130	0.9269
439.8830	0.8849
440.1520	0.9001
440.4220	0.9164
440.6910	0.9125
440.9610	0.9069
441.2300	0.8944
441.5000	0.9049
441.7690	0.8893
442.0390	0.8687
442.3080	0.8902
442.5780	0.9290
442.8470	0.9097
443.1170	0.9454
443.3860	0.9037
443.6560	0.8893
443.9250	0.8738
444.1950	0.9456
444.4640	0.9483
444.7340	0.8939
445.0030	0.8654
445.2730	0.8969
445.5420	0.9390
445.8120	0.9150
446.0810	0.9218
446.3510	0.9361
446.6200	0.9166
446.8900	0.8974
447.1590	0.8811
447.4290	0.9168
447.6980	0.9543
447.9680	0.9020
448.2380	0.9164
448.5070	0.9348
448.7770	0.9171
449.0460	0.8941
449.3160	0.9215
449.5850	0.9335
449.8550	0.9370
450.1240	0.9319
450.3940	0.9141
450.6630	0.9131
450.9330	0.9218
451.2020	0.8922
451.4720	0.9081
451.7410	0.9572
452.0110	0.9243
452.2800	0.8735
452.5500	0.8880
452.8190	0.8913
453.0890	0.9273
453.3580	0.9045
453.6280	0.8843
453.8970	0.9065
454.1670	0.9318
454.4360	0.9170
454.7060	0.8946
454.9750	0.8968
455.2450	0.9109
455.5140	0.9159
455.7840	0.8630
456.0530	0.8940
456.3230	0.8881
456.5920	0.8732
456.8620	0.8995
457.1310	0.9235
457.4010	0.9198
457.6700	0.8774
457.9400	0.9083
458.2090	0.8886
458.4790	0.8836
458.7480	0.8865
459.0180	0.8458
459.2870	0.8833
459.5570	0.9057
459.8260	0.9788
460.0960	1.0321
460.3660	0.9805
460.6350	0.9209
460.9050	0.9291
461.1740	0.8676
461.4440	0.8815
461.7130	0.8874
461.9830	0.8584
462.2520	0.8365
462.5220	0.8533
462.7910	0.8667
463.0610	0.8571
463.3300	0.9108
463.6000	0.9195
463.8690	0.9021
464.1390	0.8481
464.4080	0.8328
464.6780	0.8633
464.9470	0.8776
465.2170	0.8783
465.4860	0.8759
465.7560	0.8669
466.0250	0.8969
466.2950	0.8688
466.5640	0.8783
466.8340	0.9046
467.1030	0.9465
467.3730	0.8917
467.6420	0.8632
467.9120	0.8560
468.1810	0.8624
468.4510	0.8377
468.7200	0.8448
468.9900	0.8670
469.2590	0.9318
469.5290	0.9210
469.7980	0.8428
470.0680	0.8453
470.3370	0.8619
470.6070	0.8253
470.8760	0.8322
471.1460	0.8797
471.4150	0.8902
471.6850	0.8668
471.9540	0.8555
472.2240	0.8537
472.4930	0.8467
472.7630	0.8421
473.0330	0.8784
473.3020	0.9369
473.5720	0.8658
473.8410	0.7973
474.1110	0.8170
474.3800	0.8218
474.6500	0.8277
474.9190	0.8373
475.1890	0.8087
475.4580	0.8597
475.7280	0.8514
475.9970	0.8707
476.2670	0.8467
476.5360	0.8283
476.8060	0.8469
477.0750	0.8085
477.3450	0.8392
477.6140	0.8383
477.8840	0.8932
478.1530	0.8432
478.4230	0.8007
478.6920	0.8183
478.9620	0.8138
479.2310	0.7735
479.5010	0.7813
479.7700	0.8381
480.0400	0.8644
480.3090	0.7954
480.5790	0.7618
480.8480	0.7748
481.1180	0.8577
481.3870	0.8175
481.6570	0.8185
481.9260	0.8038
482.1960	0.7866
482.4650	0.7646
482.7350	0.7864
483.0040	0.8101
483.2740	0.7968
483.5430	0.7869
483.8130	0.7487
484.0820	0.7651
484.3520	0.7891
484.6210	0.7644
484.8910	0.7451
485.1610	0.7624
485.4300	0.8324
485.7000	0.7638
485.9690	0.7525
486.2390	0.7744
486.5080	0.8059
486.7780	0.7769
487.0470	0.7504
487.3170	0.7446
487.5860	0.7450
487.8560	0.7383
488.1250	0.7565
488.3950	0.7285
488.6640	0.7399
488.9340	0.7669
489.2030	0.7357
489.4730	0.7288
489.7420	0.7439
490.0120	0.7157
490.2810	0.7116
490.5510	0.7311
490.8200	0.7589
491.0900	0.7972
491.3590	0.7541
491.6290	0.7248
491.8980	0.7612
492.1680	0.7524
492.4370	0.7064
492.7070	0.7107
492.9760	0.7806
493.2460	0.7223
493.5150	0.7228
493.7850	0.7561
494.0540	0.7745
494.3240	0.7453
494.5930	0.6871
494.8630	0.6852
495.1320	0.7235
495.4020	0.7655
495.6710	0.7218
495.9410	0.7008
496.2100	0.7331
496.4800	0.7210
496.7490	0.7308
497.0190	0.7179
497.2890	0.7336
497.5580	0.6954
497.8280	0.6975
498.0970	0.7055
498.3670	0.7401
498.6360	0.7263
498.9060	0.6787
499.1750	0.6730
499.4450	0.6831
499.7140	0.6660
499.9840	0.6522
500.2530	0.6587
500.5230	0.6946
500.7920	0.6776
501.0620	0.6676
501.3310	0.7056
501.6010	0.7162
501.8700	0.7076
502.1400	0.6864
502.4090	0.6652
502.6790	0.6578
502.9480	0.6677
503.2180	0.6675
503.4870	0.7366
503.7570	0.6775
504.0260	0.6593
504.2960	0.6629
504.5650	0.6732
504.8350	0.6597
505.1040	0.6532
505.3740	0.6775
505.6430	0.6527
505.9130	0.7213
506.1820	0.6917
506.4520	0.6490
506.7210	0.7163
506.9910	0.7020
507.2600	0.6294
507.5300	0.6488
507.7990	0.6341
508.0690	0.6175
508.3380	0.6435
508.6080	0.6315
508.8770	0.6438
509.1470	0.6624
509.4160	0.6387
509.6860	0.5903
509.9560	0.6550
510.2250	0.6795
510.4950	0.6195
510.7640	0.6028
511.0340	0.6289
511.3030	0.6382
511.5730	0.6068
511.8420	0.5748
512.1120	0.6179
512.3810	0.6325
512.6510	0.5949
512.9200	0.5709
513.1900	0.5997
513.4590	0.5780
513.7290	0.5655
513.9980	0.6056
514.2680	0.6222
514.5370	0.7494
514.8070	0.6801
515.0760	0.5909
515.3460	0.5835
515.6150	0.5514
515.8850	0.5730
516.1540	0.5952
516.4240	0.5815
516.6930	0.5772
516.9630	0.5492
517.2320	0.5594
517.5020	0.5566
517.7710	0.5990
518.0410	0.5840
518.3100	0.5645
518.5800	0.5478
518.8490	0.5952
519.1190	0.5605
519.3880	0.5437
519.6580	0.5784
519.9270	0.5416
520.1970	0.4969
520.4660	0.4865
520.7360	0.5094
521.0050	0.5392
521.2750	0.5196
521.5440	0.5553
521.8140	0.5095
522.0840	0.5203
522.3530	0.5407
522.6230	0.4877
522.8920	0.5197
523.1620	0.5393
523.4310	0.5395
523.7010	0.5204
523.9700	0.4996
524.2400	0.4801
524.5090	0.5001
524.7790	0.4757
525.0480	0.4603
525.3180	0.5074
525.5870	0.4754
525.8570	0.4678
526.1260	0.5292
526.3960	0.5192
526.6650	0.4826
526.9350	0.4755
527.2040	0.4763
527.4740	0.4908
527.7430	0.4789
528.0130	0.4477
528.2820	0.4549
528.5520	0.4729
528.8210	0.4854
529.0910	0.4862
529.3600	0.4608
529.6300	0.4636
529.8990	0.4544
530.1690	0.4621
530.4380	0.5011
530.7080	0.5124
530.9770	0.4804
531.2470	0.4640
531.5160	0.4985
531.7860	0.4837
532.0550	0.4374
532.3250	0.4256
532.5940	0.4584
532.8640	0.4695
533.1330	0.4531
533.4030	0.4170
533.6720	0.4312
533.9420	0.4723
534.2120	0.4202
534.4810	0.4005
534.7510	0.4350
535.0200	0.5328
535.2900	0.4561
535.5590	0.4109
535.8290	0.4381
536.0980	0.4804
536.3680	0.4615
536.6370	0.4271
536.9070	0.4658
537.1760	0.4654
537.4460	0.4493
537.7150	0.4276
537.9850	0.4214
538.2540	0.4318
538.5240	0.4350
538.7930	0.4481
539.0630	0.4164
539.3320	0.4369
539.6020	0.4349
539.8710	0.4162
540.1410	0.4250
540.4100	0.4489
540.6800	0.4090
540.9490	0.4088
541.2190	0.4179
541.4880	0.4587
541.7580	0.4533
542.0270	0.4053
542.2970	0.3893
542.5660	0.4072
542.8360	0.3599
543.1050	0.3604
543.3750	0.3853
543.6440	0.3802
543.9140	0.3657
544.1830	0.3619
544.4530	0.4005
544.7220	0.3854
544.9920	0.3446
545.2610	0.3662
545.5310	0.3846
545.8000	0.3798
546.0700	0.3644
546.3460	0.3502
546.6220	0.3564
546.8970	0.3510
547.1730	0.3700
547.4490	0.3395
547.7250	0.3776
548.0010	0.3744
548.2760	0.3699
548.5520	0.3601
548.8280	0.3580
549.1040	0.3675
549.3800	0.3521
549.6550	0.3686
549.9310	0.3899
550.2070	0.4157
550.4830	0.3546
550.7590	0.3306
551.0340	0.3284
551.3100	0.3610
551.5860	0.3369
551.8620	0.3708
552.1380	0.3486
552.4130	0.3246
552.6890	0.3030
552.9650	0.3034
553.2410	0.3115
553.5170	0.3321
553.7930	0.3120
554.0680	0.3087
554.3440	0.3166
554.6200	0.3586
554.8960	0.3206
555.1720	0.2902
555.4470	0.3221
555.7230	0.3164
555.9990	0.2967
556.2750	0.2976
556.5510	0.3356
556.8260	0.3159
557.1020	0.2940
557.3780	0.3233
557.6540	0.3175
557.9300	0.3001
558.2050	0.2962
558.4810	0.2785
558.7570	0.2930
559.0330	0.2871
559.3090	0.3347
559.5840	0.3334
559.8600	0.3202
560.1360	0.3022
560.4120	0.2893
560.6880	0.2796
560.9630	0.2846
561.2390	0.3917
561.5150	0.3141
561.7910	0.2627
562.0670	0.2794
562.3420	0.3036
562.6180	0.2757
562.8940	0.2325
563.1700	0.2843
563.4460	0.2793
563.7210	0.2356
563.9970	0.2421
564.2730	0.2708
564.5490	0.3015
564.8250	0.2878
565.1000	0.3414
565.3760	0.3071
565.6520	0.2836
565.9280	0.3022
566.2040	0.2502
566.4790	0.2696
566.7550	0.2738
567.0310	0.2619
567.3070	0.2352
567.5830	0.2829
567.8580	0.2722
568.1340	0.2418
568.4100	0.2266
568.6860	0.2686
568.9620	0.2595
569.2370	0.2957
569.5130	0.2441
569.7890	0.2612
570.0650	0.2500
570.3410	0.2344
570.6170	0.2349
570.8920	0.2538
571.1680	0.2534
571.4440	0.2449
571.7200	0.2368
571.9960	0.2730
572.2710	0.3036
572.5470	0.2465
572.8230	0.2115
573.0990	0.2521
573.3750	0.3206
573.6500	0.2636
573.9260	0.2281
574.2020	0.2323
574.4780	0.2367
574.7540	0.2268
575.0290	0.2220
575.3050	0.2618
575.5810	0.2370
575.8570	0.2068
576.1330	0.1989
576.4080	0.2245
576.6840	0.2536
576.9600	0.2427
577.2390	0.2169
577.5170	0.2213
577.7960	0.2313
578.0750	0.2551
578.3540	0.2266
578.6320	0.2063
578.9110	0.2319
579.1900	0.2796
579.4690	0.2491
579.7470	0.2306
580.0260	0.2298
580.3050	0.2050
580.5840	0.2334
580.8620	0.2159
581.1410	0.2238
581.4200	0.2172
581.6990	0.2061
581.9770	0.2344
582.2560	0.2275
582.5350	0.2443
582.8140	0.2187
583.0920	0.2246
583.3710	0.2213
583.6500	0.2205
583.9290	0.2128
584.2070	0.1935
584.4860	0.2241
584.7650	0.2276
585.0430	0.1782
585.3220	0.2341
585.6010	0.2460
585.8800	0.2157
586.1580	0.1787
586.4370	0.1779
586.7160	0.2018
586.9950	0.2152
587.2730	0.1912
587.5520	0.1955
587.8310	0.2211
588.1100	0.2252
588.3880	0.1732
588.6670	0.1619
588.9460	0.1640
589.2250	0.1413
589.5030	0.1430
589.7820	0.1561
590.0610	0.1690
590.3400	0.2042
590.6180	0.2503
590.8970	0.2821
591.1760	0.2268
591.4550	0.1816
591.7330	0.1749
592.0120	0.2030
592.2910	0.2372
592.5700	0.1936
592.8480	0.2147
593.1270	0.1748
593.4060	0.1731
593.6840	0.1497
593.9630	0.1617
594.2420	0.1770
594.5210	0.1649
594.7990	0.1706
595.0780	0.1700
595.3570	0.1637
595.6360	0.1587
595.9140	0.1652
596.1930	0.1515
596.4720	0.1580
596.7510	0.1756
597.0290	0.1920
597.3080	0.1836
597.5870	0.1493
597.8660	0.1579
598.1440	0.1533
598.4230	0.1371
598.7020	0.1387
598.9810	0.1636
599.2590	0.1982
599.5380	0.1770
599.8170	0.1474
