199.8780	0.0186
200.1320	0.0210
200.3850	0.0002
200.6390	0.0039
200.8920	0.0146
201.1460	0.0102
201.4000	0.0067
201.6530	0.0066
201.9070	0.0122
202.1610	0.0006
202.4140	-0.0025
202.6680	0.0157
202.9220	0.0121
203.1750	0.0107
203.4290	0.0034
203.6830	0.0173
203.9360	0.0281
204.1900	0.0140
204.4430	0.0332
204.6970	0.0407
204.9510	0.0160
205.2040	0.0036
205.4580	0.0120
205.7120	0.0240
205.9650	0.0129
206.2190	0.0122
206.4730	0.0129
206.7260	0.0101
206.9800	0.0209
207.2330	0.0079
207.4870	-0.0030
207.7410	0.0078
207.9940	0.0180
208.2480	0.0176
208.5020	0.0081
208.7550	0.0113
209.0090	0.0261
209.2630	0.0319
209.5160	0.0115
209.7700	0.0036
210.0240	0.0124
210.2770	0.0113
210.5310	0.0019
210.7840	-0.0015
211.0380	0.0023
211.2920	-0.0043
211.5450	-0.0018
211.7990	0.0243
212.0530	0.0377
212.3060	0.0289
212.5600	0.0088
212.8140	0.0054
213.0670	0.0051
213.3210	0.0094
213.5750	0.0109
213.8280	0.0184
214.0820	0.0353
214.3350	0.0177
214.5890	0.0084
214.8430	0.0111
215.0960	0.0298
215.3500	0.0216
215.6040	0.0183
215.8570	0.0095
216.1110	0.0134
216.3650	0.0052
216.6180	0.0026
216.8720	0.0107
217.1260	0.0059
217.3790	0.0144
217.6330	0.0052
217.8860	0.0105
218.1400	0.0114
218.3940	0.0047
218.6470	0.0028
218.9010	0.0034
219.1550	0.0153
219.4080	0.0039
219.6620	-0.0032
219.9160	0.0108
220.1690	0.0203
220.4230	0.0178
220.6770	0.0159
220.9300	0.0044
221.1840	0.0005
221.4370	-0.0037
221.6910	-0.0029
221.9450	0.0041
222.1980	0.0084
222.4520	0.0128
222.7060	0.0200
222.9590	0.0181
223.2130	0.0212
223.4670	0.0150
223.7200	0.0175
223.9740	0.0192
224.2280	0.0094
224.4810	0.0144
224.7350	0.0100
224.9880	0.0145
225.2420	0.0259
225.4960	0.0181
225.7490	0.0315
226.0030	0.0300
226.2570	0.0161
226.5100	0.0031
226.7640	0.0233
227.0180	0.0255
227.2710	0.0233
227.5250	0.0155
227.7790	0.0066
228.0320	0.0180
228.2860	0.0325
228.5390	0.0210
228.7930	0.0067
229.0470	0.0157
229.3000	0.0411
229.5540	0.0412
229.8080	0.0198
230.0610	0.0208
230.3150	0.0253
230.5690	0.0063
230.8220	0.0079
231.0760	0.0157
231.3300	0.0141
231.5830	0.0163
231.8370	0.0047
232.0900	0.0049
232.3440	0.0098
232.5980	0.0133
232.8510	0.0197
233.1050	0.0138
233.3590	0.0397
233.6120	0.0219
233.8660	0.0112
234.1200	0.0144
234.3730	0.0318
234.6270	0.0250
234.8800	0.0034
235.1340	0.0074
235.3880	0.0397
235.6410	0.0207
235.8950	0.0012
236.1490	0.0070
236.4020	0.0158
236.6560	0.0194
236.9100	0.0017
237.1630	0.0157
237.4170	0.0147
237.6710	-0.0019
237.9240	0.0080
238.1780	0.0177
238.4310	0.0142
238.6850	0.0022
238.9390	0.0121
239.1920	0.0096
239.4460	0.0250
239.7000	0.0191
239.9530	-0.0003
240.2070	0.0149
240.4610	0.0217
240.7140	0.0146
240.9680	0.0102
241.2220	0.0084
241.4750	0.0106
241.7290	0.0043
241.9820	0.0079
242.2360	0.0245
242.4900	0.0199
242.7430	0.0144
242.9970	0.0452
243.2510	0.0213
243.5040	0.0143
243.7580	0.0017
244.0120	0.0049
244.2650	0.0426
244.5190	0.0375
244.7730	0.0116
245.0260	0.0099
245.2800	0.0161
245.5330	0.0280
245.7870	0.0150
246.0410	0.0129
246.2940	0.0285
246.5480	0.0207
246.8020	0.0127
247.0550	0.0170
247.3090	0.0326
247.5630	0.0252
247.8160	0.0184
248.0700	0.0219
248.3240	0.0396
248.5770	0.0198
248.8310	0.0030
249.0840	0.0131
249.3380	0.0166
249.5920	0.0226
249.8450	0.0085
250.0990	0.0201
250.3530	0.0309
250.6060	0.0191
250.8600	0.0048
251.1140	-0.0014
251.3670	0.0284
251.6210	0.0272
251.8750	0.0168
252.1280	0.0200
252.3820	0.0244
252.6350	0.0236
252.8890	0.0174
253.1430	0.0061
253.3960	0.0174
253.6500	0.0291
253.9040	0.0149
254.1590	0.0033
254.4130	0.0211
254.6670	0.0365
254.9220	0.0375
255.1760	0.0427
255.4310	0.0203
255.6850	0.0180
255.9390	0.0235
256.1940	0.0068
256.4480	0.0076
256.7020	0.0136
256.9570	0.0187
257.2110	0.0190
257.4650	0.0266
257.7200	0.0697
257.9740	0.0422
258.2280	0.0246
258.4830	0.0146
258.7370	0.0128
258.9920	0.0172
259.2460	0.0175
259.5000	0.0186
259.7550	0.0290
260.0090	0.0286
260.2630	0.0156
260.5180	0.0213
260.7720	0.0213
261.0260	0.0113
261.2810	0.0070
261.5350	0.0106
261.7890	0.0150
262.0440	0.0074
262.2980	0.0289
262.5530	0.0271
262.8070	0.0136
263.0610	0.0063
263.3160	0.0172
263.5700	0.0284
263.8240	0.0134
264.0790	0.0094
264.3330	0.0051
264.5870	0.0044
264.8420	0.0370
265.0960	0.0297
265.3510	0.0349
265.6050	0.0374
265.8590	0.0235
266.1140	0.0152
266.3680	0.0190
266.6220	0.0208
266.8770	0.0242
267.1310	0.0189
267.3850	0.0268
267.6400	0.0193
267.8940	0.0173
268.1480	0.0085
268.4030	0.0140
268.6570	0.0168
268.9120	0.0105
269.1660	0.0064
269.4200	0.0155
269.6750	0.0244
269.9290	0.0235
270.1830	0.0240
270.4380	0.0237
270.6920	0.0238
270.9460	0.0220
271.2010	0.0419
271.4550	0.0176
271.7090	0.0071
271.9640	0.0179
272.2180	0.0084
272.4730	0.0011
272.7270	0.0205
272.9810	0.0304
273.2360	0.0132
273.4900	0.0113
273.7440	0.0221
273.9990	0.0293
274.2530	0.0136
274.5070	0.0058
274.7620	0.0149
275.0160	0.0186
275.2710	0.0253
275.5250	0.0197
275.7790	0.0144
276.0340	0.0134
276.2880	0.0112
276.5420	0.0200
276.7970	0.0281
277.0510	0.0285
277.3050	0.0368
277.5600	0.0220
277.8140	0.0184
278.0680	0.0314
278.3230	0.0169
278.5770	0.0182
278.8320	0.0353
279.0860	0.0365
279.3400	0.0407
279.5950	0.0269
279.8490	0.0287
280.1030	0.0242
280.3580	0.0228
280.6120	0.0228
280.8660	0.0226
281.1210	0.0241
281.3750	0.0110
281.6290	0.0069
281.8840	0.0274
282.1380	0.0395
282.3930	0.0293
282.6470	0.0251
282.9010	0.0282
283.1560	0.0196
283.4100	0.0285
283.6640	0.0200
283.9190	0.0196
284.1730	0.0162
284.4270	0.0169
284.6820	0.0152
284.9360	0.0220
285.1910	0.0262
285.4450	0.0262
285.6990	0.0187
285.9540	0.0110
286.2080	0.0221
286.4620	0.0293
286.7170	0.0185
286.9710	0.0384
287.2250	0.0491
287.4800	0.0172
287.7340	0.0029
287.9880	0.0254
288.2430	0.0420
288.4970	0.0180
288.7520	0.0113
289.0060	0.0353
289.2600	0.0222
289.5150	0.0150
289.7690	0.0149
290.0230	0.0268
290.2780	0.0311
290.5320	0.0284
290.7860	0.0200
291.0410	0.0344
291.2950	0.0375
291.5490	0.0180
291.8040	0.0174
292.0580	0.0271
292.3130	0.0223
292.5670	0.0187
292.8210	0.0173
293.0760	0.0299
293.3300	0.0404
293.5840	0.0464
293.8390	0.0233
294.0930	0.0151
294.3470	0.0219
294.6020	0.0271
294.8560	0.0244
295.1110	0.0149
295.3650	0.0183
295.6190	0.0274
295.8740	0.0242
296.1280	0.0280
296.3820	0.0417
296.6370	0.0417
296.8910	0.0226
297.1450	0.0295
297.4000	0.0555
297.6540	0.0462
297.9080	0.0280
298.1630	0.0268
298.4170	0.0255
298.6720	0.0168
298.9260	0.0250
299.1800	0.0338
299.4350	0.0372
299.6890	0.0253
299.9430	0.0223
300.1980	0.0378
300.4520	0.0514
300.7060	0.0468
300.9610	0.0516
301.2150	0.0435
301.4690	0.0528
301.7240	0.0426
301.9780	0.0413
302.2330	0.0500
302.4870	0.0614
302.7410	0.0606
302.9960	0.0426
303.2500	0.0526
303.5040	0.0702
303.7590	0.0533
304.0130	0.0553
304.2670	0.0730
304.5220	0.0596
304.7760	0.0471
305.0310	0.0418
305.2850	0.0421
305.5390	0.0497
305.7940	0.0402
306.0480	0.0370
306.3020	0.0697
306.5570	0.0617
306.8110	0.0567
307.0650	0.0587
307.3200	0.0654
307.5740	0.0571
307.8280	0.0438
308.0830	0.0485
308.3370	0.0501
308.5920	0.0568
308.8460	0.0687
309.1000	0.0593
309.3550	0.0792
309.6090	0.0803
309.8630	0.0593
310.1180	0.0431
310.3720	0.0569
310.6260	0.0613
310.8810	0.0524
311.1350	0.0548
311.3890	0.0617
311.6440	0.0589
311.8980	0.0493
312.1530	0.0622
312.4070	0.0763
312.6610	0.0754
312.9160	0.0571
313.1700	0.0420
313.4290	0.0601
313.6880	0.0702
313.9470	0.0604
314.2060	0.0453
314.4650	0.0545
314.7240	0.0588
314.9830	0.0634
315.2420	0.0510
315.5010	0.0511
315.7600	0.0527
316.0190	0.0611
316.2780	0.0551
316.5360	0.0494
316.7950	0.0561
317.0540	0.0571
317.3130	0.0837
317.5720	0.0696
317.8310	0.0596
318.0900	0.0450
318.3490	0.0419
318.6080	0.0668
318.8670	0.0581
319.1260	0.0607
319.3850	0.0496
319.6440	0.0637
319.9030	0.0586
320.1620	0.0397
320.4210	0.0338
320.6800	0.0356
320.9390	0.0552
321.1980	0.0402
321.4570	0.0363
321.7160	0.0408
321.9750	0.0523
322.2340	0.0556
322.4930	0.0520
322.7520	0.0593
323.0100	0.0603
323.2690	0.0557
323.5280	0.0473
323.7870	0.0431
324.0460	0.0366
324.3050	0.0411
324.5640	0.0306
324.8230	0.0357
325.0820	0.0400
325.3410	0.0403
325.6000	0.0306
325.8590	0.0239
326.1180	0.0342
326.3770	0.0375
326.6360	0.0403
326.8950	0.0613
327.1540	0.0568
327.4130	0.0278
327.6720	0.0264
327.9310	0.0521
328.1900	0.0594
328.4490	0.0529
328.7080	0.0344
328.9670	0.0308
329.2260	0.0334
329.4850	0.0420
329.7430	0.0528
330.0020	0.0596
330.2610	0.0456
330.5200	0.0380
330.7790	0.0374
331.0380	0.0379
331.2970	0.0274
331.5560	0.0149
331.8150	0.0153
332.0740	0.0239
332.3330	0.0304
332.5920	0.0308
332.8510	0.0242
333.1100	0.0259
333.3690	0.0245
333.6280	0.0182
333.8870	0.0395
334.1460	0.0436
334.4050	0.0381
334.6640	0.0365
334.9230	0.0262
335.1820	0.0314
335.4410	0.0354
335.7000	0.0382
335.9590	0.0333
336.2170	0.0243
336.4760	0.0308
336.7350	0.0384
336.9940	0.0324
337.2530	0.0430
337.5120	0.0366
337.7710	0.0344
338.0300	0.0385
338.2890	0.0466
338.5480	0.0327
338.8070	0.0289
339.0660	0.0363
339.3250	0.0277
339.5840	0.0302
339.8430	0.0323
340.1020	0.0296
340.3610	0.0331
340.6200	0.0388
340.8790	0.0406
341.1380	0.0379
341.3970	0.0312
341.6560	0.0276
341.9150	0.0241
342.1740	0.0372
342.4330	0.0354
342.6910	0.0321
342.9500	0.0308
343.2090	0.0204
343.4680	0.0388
343.7270	0.0347
343.9860	0.0237
344.2450	0.0184
344.5040	0.0364
344.7630	0.0453
345.0220	0.0262
345.2810	0.0192
345.5400	0.0227
345.7990	0.0286
346.0580	0.0322
346.3170	0.0287
346.5760	0.0422
346.8350	0.0353
347.0940	0.0205
347.3530	0.0210
347.6120	0.0234
347.8710	0.0365
348.1300	0.0380
348.3890	0.0297
348.6480	0.0373
348.9070	0.0328
349.1660	0.0212
349.4240	0.0203
349.6830	0.0273
349.9420	0.0408
350.2010	0.0364
350.4600	0.0351
350.7190	0.0402
350.9780	0.0346
351.2370	0.0248
351.4960	0.0172
351.7550	0.0291
352.0140	0.0357
352.2730	0.0236
352.5320	0.0228
352.7910	0.0384
353.0500	0.0309
353.3090	0.0178
353.5680	0.0168
353.8270	0.0275
354.0860	0.0366
354.3450	0.0410
354.6040	0.0275
354.8630	0.0340
355.1220	0.0367
355.3810	0.0373
355.6400	0.0304
355.8980	0.0565
356.1570	0.0594
356.4160	0.0380
356.6750	0.0456
356.9340	0.0447
357.1930	0.0428
357.4520	0.0423
357.7110	0.0383
357.9700	0.0414
358.2290	0.0352
358.4880	0.0388
358.7470	0.0235
359.0060	0.0300
359.2650	0.0443
359.5240	0.0272
359.7830	0.0243
360.0420	0.0256
360.3010	0.0460
360.5600	0.0331
360.8190	0.0282
361.0780	0.0259
361.3370	0.0322
361.5960	0.0360
361.8550	0.0264
362.1140	0.0366
362.3720	0.0428
362.6310	0.0251
362.8900	0.0284
363.1490	0.0342
363.4080	0.0431
363.6670	0.0371
363.9260	0.0284
364.1850	0.0297
364.4440	0.0310
364.7030	0.0226
364.9620	0.0334
365.2210	0.0544
365.4800	0.0453
365.7390	0.0436
365.9990	0.0420
366.2580	0.0357
366.5180	0.0327
366.7770	0.0248
367.0370	0.0432
367.2960	0.0375
367.5560	0.0374
367.8150	0.0401
368.0750	0.0414
368.3340	0.0377
368.5940	0.0351
368.8530	0.0415
369.1130	0.0339
369.3720	0.0287
369.6320	0.0447
369.8910	0.0389
370.1500	0.0248
370.4100	0.0419
370.6690	0.0487
370.9290	0.0260
371.1880	0.0226
371.4480	0.0347
371.7070	0.0518
371.9670	0.0354
372.2260	0.0276
372.4860	0.0582
372.7450	0.0507
373.0050	0.0479
373.2640	0.0290
373.5240	0.0303
373.7830	0.0298
374.0430	0.0457
374.3020	0.0369
374.5610	0.0463
374.8210	0.0373
375.0800	0.0340
375.3400	0.0425
375.5990	0.0429
375.8590	0.0485
376.1180	0.0369
376.3780	0.0300
376.6370	0.0493
376.8970	0.0483
377.1560	0.0317
377.4160	0.0300
377.6750	0.0283
377.9350	0.0401
378.1940	0.0442
378.4540	0.0436
378.7130	0.0480
378.9720	0.0426
379.2320	0.0357
379.4910	0.0356
379.7510	0.0385
380.0100	0.0440
380.2700	0.0346
380.5290	0.0308
380.7890	0.0438
381.0480	0.0450
381.3080	0.0363
381.5670	0.0332
381.8270	0.0376
382.0860	0.0289
382.3460	0.0305
382.6050	0.0252
382.8650	0.0345
383.1240	0.0475
383.3830	0.0418
383.6430	0.0521
383.9020	0.0488
384.1620	0.0380
384.4210	0.0242
384.6810	0.0506
384.9400	0.0737
385.2000	0.0576
385.4590	0.0455
385.7190	0.0341
385.9780	0.0289
386.2380	0.0395
386.4970	0.0360
386.7570	0.0238
387.0160	0.0448
387.2760	0.0553
387.5350	0.0450
387.7940	0.0483
388.0540	0.0437
388.3130	0.0487
388.5730	0.0340
388.8320	0.0317
389.0920	0.0363
389.3510	0.0382
389.6110	0.0382
389.8700	0.0437
390.1300	0.0504
390.3890	0.0521
390.6490	0.0373
390.9080	0.0226
391.1680	0.0377
391.4270	0.0582
391.6860	0.0590
391.9460	0.0415
392.2050	0.0463
392.4650	0.0562
392.7240	0.0394
392.9840	0.0487
393.2430	0.0588
393.5030	0.0538
393.7620	0.0465
394.0220	0.0348
394.2810	0.0310
394.5410	0.0347
394.8000	0.0417
395.0600	0.0377
395.3190	0.0432
395.5790	0.0365
395.8380	0.0296
396.0970	0.0392
396.3570	0.0611
396.6160	0.0447
396.8760	0.0331
397.1350	0.0295
397.3950	0.0254
397.6540	0.0364
397.9140	0.0721
398.1730	0.0623
398.4330	0.0558
398.6920	0.0563
398.9520	0.0527
399.2110	0.0377
399.4710	0.0527
399.7300	0.0467
399.9900	0.0464
400.2490	0.0394
400.5080	0.0351
400.7680	0.0341
401.0270	0.0343
401.2870	0.0459
401.5460	0.0446
401.8060	0.0449
402.0650	0.0576
402.3250	0.0444
402.5840	0.0630
402.8440	0.0516
403.1030	0.0367
403.3630	0.0694
403.6220	0.0506
403.8820	0.0415
404.1410	0.0444
404.4010	0.0691
404.6600	0.0555
404.9260	0.0403
405.1930	0.0416
405.4590	0.0408
405.7260	0.0329
405.9920	0.0280
406.2590	0.0303
406.5250	0.0289
406.7920	0.0463
407.0580	0.0464
407.3250	0.0293
407.5910	0.0361
407.8580	0.0474
408.1240	0.0520
408.3910	0.0364
408.6570	0.0299
408.9240	0.0367
409.1900	0.0427
409.4570	0.0587
409.7230	0.0467
409.9900	0.0488
410.2560	0.0613
410.5230	0.0387
410.7890	0.0314
411.0560	0.0406
411.3220	0.0346
411.5890	0.0253
411.8550	0.0404
412.1220	0.0449
412.3880	0.0389
412.6550	0.0271
412.9210	0.0239
413.1880	0.0442
413.4540	0.0669
413.7210	0.0384
413.9870	0.0332
414.2540	0.0391
414.5200	0.0381
414.7870	0.0274
415.0530	0.0394
415.3200	0.0471
415.5860	0.0472
415.8530	0.0406
416.1190	0.0354
416.3860	0.0393
416.6520	0.0326
416.9190	0.0353
417.1850	0.0267
417.4520	0.0435
417.7180	0.0587
417.9850	0.0450
418.2510	0.0339
418.5180	0.0406
418.7840	0.0339
419.0510	0.0325
419.3170	0.0346
419.5840	0.0400
419.8500	0.0431
420.1170	0.0368
420.3830	0.0262
420.6500	0.0278
420.9160	0.0387
421.1830	0.0273
421.4490	0.0340
421.7160	0.0424
421.9820	0.0497
422.2490	0.0394
422.5150	0.0498
422.7820	0.0547
423.0480	0.0512
423.3150	0.0570
423.5810	0.0466
423.8480	0.0627
424.1140	0.0677
424.3810	0.0412
424.6470	0.0444
424.9140	0.0449
425.1800	0.0404
425.4470	0.0426
425.7130	0.0506
425.9800	0.0688
426.2460	0.0803
426.5130	0.0501
426.7790	0.0251
427.0460	0.0319
427.3120	0.0494
427.5790	0.0369
427.8450	0.0354
428.1120	0.0433
428.3780	0.0524
428.6450	0.0876
428.9110	0.0505
429.1780	0.0388
429.4440	0.0404
429.7110	0.0372
429.9770	0.0255
430.2440	0.0411
430.5100	0.0464
430.7770	0.0462
431.0430	0.0506
431.3100	0.0510
431.5760	0.0422
431.8430	0.0578
432.1090	0.0507
432.3760	0.0446
432.6420	0.0593
432.9090	0.0471
433.1750	0.0326
433.4420	0.0335
433.7080	0.0645
433.9750	0.0796
434.2410	0.0605
434.5080	0.0554
434.7740	0.0485
435.0410	0.0487
435.3070	0.0357
435.5740	0.0431
435.8400	0.0535
436.1100	0.0672
436.3790	0.0585
436.6490	0.0551
436.9180	0.0587
437.1880	0.0646
437.4570	0.0530
437.7270	0.0398
437.9960	0.0452
438.2660	0.0356
438.5350	0.0424
438.8050	0.0561
439.0740	0.0548
439.3440	0.0489
439.6130	0.0510
439.8830	0.0373
440.1520	0.0429
440.4220	0.0492
440.6910	0.0482
440.9610	0.0443
441.2300	0.0426
441.5000	0.0441
441.7690	0.0370
442.0390	0.0320
442.3080	0.0372
442.5780	0.0513
442.8470	0.0465
443.1170	0.0586
443.3860	0.0440
443.6560	0.0363
443.9250	0.0316
444.1950	0.0585
444.4640	0.0580
444.7340	0.0381
445.0030	0.0305
445.2730	0.0423
445.5420	0.0554
445.8120	0.0461
446.0810	0.0506
446.3510	0.0559
446.6200	0.0482
446.8900	0.0415
447.1590	0.0343
447.4290	0.0451
447.6980	0.0612
447.9680	0.0432
448.2380	0.0453
448.5070	0.0509
448.7770	0.0456
449.0460	0.0380
449.3160	0.0481
449.5850	0.0540
449.8550	0.0537
450.1240	0.0492
450.3940	0.0436
450.6630	0.0450
450.9330	0.0458
451.2020	0.0364
451.4720	0.0421
451.7410	0.0562
452.0110	0.0459
452.2800	0.0299
452.5500	0.0345
452.8190	0.0365
453.0890	0.0497
453.3580	0.0440
453.6280	0.0362
453.8970	0.0414
454.1670	0.0500
454.4360	0.0448
454.7060	0.0371
454.9750	0.0361
455.2450	0.0422
455.5140	0.0463
455.7840	0.0301
456.0530	0.0390
456.3230	0.0376
456.5920	0.0315
456.8620	0.0437
457.1310	0.0527
457.4010	0.0483
457.6700	0.0311
457.9400	0.0418
458.2090	0.0380
458.4790	0.0371
458.7480	0.0364
459.0180	0.0238
459.2870	0.0356
459.5570	0.0422
459.8260	0.0717
460.0960	0.0914
460.3660	0.0742
460.6350	0.0515
460.9050	0.0532
461.1740	0.0347
461.4440	0.0356
461.7130	0.0387
461.9830	0.0289
462.2520	0.0226
462.5220	0.0308
462.7910	0.0337
463.0610	0.0285
463.3300	0.0482
463.6000	0.0536
463.8690	0.0469
464.1390	0.0285
464.4080	0.0225
464.6780	0.0317
464.9470	0.0384
465.2170	0.0408
465.4860	0.0400
465.7560	0.0378
466.0250	0.0462
466.2950	0.0365
466.5640	0.0414
466.8340	0.0508
467.1030	0.0677
467.3730	0.0449
467.6420	0.0329
467.9120	0.0336
468.1810	0.0376
468.4510	0.0287
468.7200	0.0309
468.9900	0.0380
469.2590	0.0600
469.5290	0.0592
469.7980	0.0341
470.0680	0.0329
470.3370	0.0378
470.6070	0.0282
470.8760	0.0311
471.1460	0.0491
471.4150	0.0518
471.6850	0.0415
471.9540	0.0388
472.2240	0.0391
472.4930	0.0382
472.7630	0.0391
473.0330	0.0511
473.3020	0.0713
473.5720	0.0470
473.8410	0.0244
474.1110	0.0303
474.3800	0.0335
474.6500	0.0365
474.9190	0.0405
475.1890	0.0297
475.4580	0.0448
475.7280	0.0465
475.9970	0.0573
476.2670	0.0455
476.5360	0.0395
476.8060	0.0459
477.0750	0.0321
477.3450	0.0425
477.6140	0.0422
477.8840	0.0612
478.1530	0.0446
478.4230	0.0295
478.6920	0.0385
478.9620	0.0396
479.2310	0.0257
479.5010	0.0268
479.7700	0.0452
480.0400	0.0572
480.3090	0.0352
480.5790	0.0230
480.8480	0.0275
481.1180	0.0541
481.3870	0.0444
481.6570	0.0435
481.9260	0.0385
482.1960	0.0330
482.4650	0.0276
482.7350	0.0339
483.0040	0.0415
483.2740	0.0384
483.5430	0.0363
483.8130	0.0236
484.0820	0.0297
484.3520	0.0393
484.6210	0.0339
484.8910	0.0295
485.1610	0.0338
485.4300	0.0580
485.7000	0.0367
485.9690	0.0287
486.2390	0.0348
486.5080	0.0465
486.7780	0.0401
487.0470	0.0309
487.3170	0.0288
487.5860	0.0310
487.8560	0.0282
488.1250	0.0337
488.3950	0.0278
488.6640	0.0303
488.9340	0.0396
489.2030	0.0294
489.4730	0.0262
489.7420	0.0332
490.0120	0.0253
490.2810	0.0218
490.5510	0.0318
490.8200	0.0418
491.0900	0.0544
491.3590	0.0413
491.6290	0.0323
491.8980	0.0508
492.1680	0.0459
492.4370	0.0247
492.7070	0.0251
492.9760	0.0524
493.2460	0.0346
493.5150	0.0302
493.7850	0.0456
494.0540	0.0534
494.3240	0.0439
494.5930	0.0248
494.8630	0.0230
495.1320	0.0359
495.4020	0.0547
495.6710	0.0383
495.9410	0.0303
496.2100	0.0440
496.4800	0.0395
496.7490	0.0440
497.0190	0.0401
497.2890	0.0455
497.5580	0.0338
497.8280	0.0330
498.0970	0.0355
498.3670	0.0467
498.6360	0.0437
498.9060	0.0288
499.1750	0.0261
499.4450	0.0327
499.7140	0.0269
499.9840	0.0237
500.2530	0.0258
500.5230	0.0355
500.7920	0.0328
501.0620	0.0300
501.3310	0.0445
501.6010	0.0477
501.8700	0.0434
502.1400	0.0353
502.4090	0.0297
502.6790	0.0303
502.9480	0.0346
503.2180	0.0358
503.4870	0.0598
503.7570	0.0407
504.0260	0.0325
504.2960	0.0339
504.5650	0.0443
504.8350	0.0398
505.1040	0.0338
505.3740	0.0455
505.6430	0.0362
505.9130	0.0602
506.1820	0.0557
506.4520	0.0371
506.7210	0.0660
506.9910	0.0601
507.2600	0.0315
507.5300	0.0350
507.7990	0.0326
508.0690	0.0287
508.3380	0.0371
508.6080	0.0340
508.8770	0.0391
509.1470	0.0469
509.4160	0.0405
509.6860	0.0272
509.9560	0.0464
510.2250	0.0545
510.4950	0.0345
510.7640	0.0280
511.0340	0.0382
511.3030	0.0420
511.5730	0.0328
511.8420	0.0226
512.1120	0.0379
512.3810	0.0433
512.6510	0.0304
512.9200	0.0241
513.1900	0.0354
513.4590	0.0301
513.7290	0.0290
513.9980	0.0413
514.2680	0.0468
514.5370	0.0945
514.8070	0.0736
515.0760	0.0397
515.3460	0.0360
515.6150	0.0288
515.8850	0.0364
516.1540	0.0443
516.4240	0.0398
516.6930	0.0388
516.9630	0.0308
517.2320	0.0335
517.5020	0.0335
517.7710	0.0271
518.0410	0.0326
518.3100	0.0371
518.5800	0.0326
518.8490	0.0481
519.1190	0.0382
519.3880	0.0324
519.6580	0.0453
519.9270	0.0355
520.1970	0.0226
520.4660	0.0184
520.7360	0.0256
521.0050	0.0381
521.2750	0.0311
521.5440	0.0430
521.8140	0.0319
522.0840	0.0354
522.3530	0.0392
522.6230	0.0232
522.8920	0.0322
523.1620	0.0406
523.4310	0.0443
523.7010	0.0380
523.9700	0.0320
524.2400	0.0256
524.5090	0.0282
524.7790	0.0213
525.0480	0.0179
525.3180	0.0365
525.5870	0.0264
525.8570	0.0225
526.1260	0.0441
526.3960	0.0412
526.6650	0.0287
526.9350	0.0261
527.2040	0.0263
527.4740	0.0323
527.7430	0.0300
528.0130	0.0198
528.2820	0.0224
528.5520	0.0297
528.8210	0.0338
529.0910	0.0352
529.3600	0.0281
529.6300	0.0293
529.8990	0.0255
530.1690	0.0271
530.4380	0.0412
530.7080	0.0476
530.9770	0.0375
531.2470	0.0328
531.5160	0.0464
531.7860	0.0411
532.0550	0.0259
532.3250	0.0208
532.5940	0.0332
532.8640	0.0391
533.1330	0.0320
533.4030	0.0213
533.6720	0.0265
533.9420	0.0420
534.2120	0.0268
534.4810	0.0182
534.7510	0.0289
535.0200	0.0655
535.2900	0.0398
535.5590	0.0219
535.8290	0.0322
536.0980	0.0486
536.3680	0.0429
536.6370	0.0324
536.9070	0.0452
537.1760	0.0452
537.4460	0.0397
537.7150	0.0325
537.9850	0.0318
538.2540	0.0355
538.5240	0.0373
538.7930	0.0414
539.0630	0.0330
539.3320	0.0403
539.6020	0.0414
539.8710	0.0348
540.1410	0.0396
540.4100	0.0467
540.6800	0.0328
540.9490	0.0323
541.2190	0.0380
541.4880	0.0554
541.7580	0.0544
542.0270	0.0363
542.2970	0.0321
542.5660	0.0354
542.8360	0.0212
543.1050	0.0214
543.3750	0.0304
543.6440	0.0311
543.9140	0.0272
544.1830	0.0244
544.4530	0.0375
544.7220	0.0333
544.9920	0.0206
545.2610	0.0278
545.5310	0.0351
545.8000	0.0345
546.0700	0.0301
546.3460	0.0257
546.6220	0.0286
546.8970	0.0280
547.1730	0.0336
547.4490	0.0249
547.7250	0.0395
548.0010	0.0392
548.2760	0.0357
548.5520	0.0322
548.8280	0.0315
549.1040	0.0357
549.3800	0.0336
549.6550	0.0389
549.9310	0.0448
550.2070	0.0542
550.4830	0.0354
550.7590	0.0260
551.0340	0.0265
551.3100	0.0377
551.5860	0.0308
551.8620	0.0418
552.1380	0.0356
552.4130	0.0276
552.6890	0.0206
552.9650	0.0205
553.2410	0.0236
553.5170	0.0316
553.7930	0.0268
554.0680	0.0249
554.3440	0.0287
554.6200	0.0431
554.8960	0.0313
555.1720	0.0211
555.4470	0.0318
555.7230	0.0303
555.9990	0.0246
556.2750	0.0249
556.5510	0.0377
556.8260	0.0326
557.1020	0.0259
557.3780	0.0361
557.6540	0.0353
557.9300	0.0295
558.2050	0.0280
558.4810	0.0229
558.7570	0.0274
559.0330	0.0270
559.3090	0.0409
559.5840	0.0413
559.8600	0.0375
560.1360	0.0315
560.4120	0.0280
560.6880	0.0261
560.9630	0.0280
561.2390	0.0654
561.5150	0.0428
561.7910	0.0230
562.0670	0.0284
562.3420	0.0360
562.6180	0.0286
562.8940	0.0158
563.1700	0.0308
563.4460	0.0307
563.7210	0.0180
563.9970	0.0200
564.2730	0.0302
564.5490	0.0393
564.8250	0.0344
565.1000	0.0546
565.3760	0.0435
565.6520	0.0337
565.9280	0.0403
566.2040	0.0259
566.4790	0.0308
566.7550	0.0329
567.0310	0.0295
567.3070	0.0220
567.5830	0.0372
567.8580	0.0345
568.1340	0.0246
568.4100	0.0195
568.6860	0.0334
568.9620	0.0317
569.2370	0.0443
569.5130	0.0285
569.7890	0.0325
570.0650	0.0309
570.3410	0.0265
570.6170	0.0256
570.8920	0.0310
571.1680	0.0312
571.4440	0.0288
571.7200	0.0271
571.9960	0.0389
572.2710	0.0506
572.5470	0.0330
572.8230	0.0209
573.0990	0.0333
573.3750	0.0589
573.6500	0.0395
573.9260	0.0264
574.2020	0.0278
574.4780	0.0305
574.7540	0.0272
575.0290	0.0259
575.3050	0.0405
575.5810	0.0329
575.8570	0.0226
576.1330	0.0198
576.4080	0.0292
576.6840	0.0382
576.9600	0.0351
577.2390	0.0262
577.5170	0.0284
577.7960	0.0349
578.0750	0.0424
578.3540	0.0326
578.6320	0.0270
578.9110	0.0341
579.1900	0.0488
579.4690	0.0388
579.7470	0.0338
580.0260	0.0351
580.3050	0.0264
580.5840	0.0362
580.8620	0.0316
581.1410	0.0353
581.4200	0.0324
581.6990	0.0277
581.9770	0.0368
582.2560	0.0353
582.5350	0.0419
582.8140	0.0339
583.0920	0.0362
583.3710	0.0359
583.6500	0.0343
583.9290	0.0310
584.2070	0.0276
584.4860	0.0370
584.7650	0.0394
585.0430	0.0236
585.3220	0.0407
585.6010	0.0449
585.8800	0.0350
586.1580	0.0241
586.4370	0.0237
586.7160	0.0314
586.9950	0.0352
587.2730	0.0283
587.5520	0.0297
587.8310	0.0357
588.1100	0.0400
588.3880	0.0253
588.6670	0.0204
588.9460	0.0219
589.2250	0.0157
589.5030	0.0158
589.7820	0.0201
590.0610	0.0237
590.3400	0.0359
590.6180	0.0523
590.8970	0.0638
591.1760	0.0452
591.4550	0.0299
591.7330	0.0293
592.0120	0.0375
592.2910	0.0493
592.5700	0.0337
592.8480	0.0424
593.1270	0.0323
593.4060	0.0305
593.6840	0.0227
593.9630	0.0262
594.2420	0.0320
594.5210	0.0288
594.7990	0.0318
595.0780	0.0307
595.3570	0.0284
595.6360	0.0272
595.9140	0.0289
596.1930	0.0246
596.4720	0.0263
596.7510	0.0327
597.0290	0.0388
597.3080	0.0364
597.5870	0.0267
597.8660	0.0284
598.1440	0.0260
598.4230	0.0217
598.7020	0.0231
598.9810	0.0307
599.2590	0.0429
599.5380	0.0353
599.8170	0.0256
