199.8780	0.0194
200.1320	0.0200
200.3850	0.0009
200.6390	0.0042
200.8920	0.0116
201.1460	0.0063
201.4000	0.0045
201.6530	0.0048
201.9070	0.0096
202.1610	0.0001
202.4140	-0.0024
202.6680	0.0145
202.9220	0.0117
203.1750	0.0095
203.4290	0.0026
203.6830	0.0144
203.9360	0.0244
204.1900	0.0126
204.4430	0.0296
204.6970	0.0354
204.9510	0.0136
205.2040	0.0029
205.4580	0.0092
205.7120	0.0242
205.9650	0.0129
206.2190	0.0100
206.4730	0.0136
206.7260	0.0097
206.9800	0.0179
207.2330	0.0067
207.4870	-0.0038
207.7410	0.0052
207.9940	0.0150
208.2480	0.0150
208.5020	0.0071
208.7550	0.0095
209.0090	0.0208
209.2630	0.0264
209.5160	0.0092
209.7700	0.0026
210.0240	0.0181
210.2770	0.0136
210.5310	0.0012
210.7840	-0.0022
211.0380	0.0015
211.2920	-0.0034
211.5450	-0.0007
211.7990	0.0209
212.0530	0.0318
212.3060	0.0241
212.5600	0.0064
212.8140	0.0039
213.0670	0.0056
213.3210	0.0088
213.5750	0.0093
213.8280	0.0158
214.0820	0.0300
214.3350	0.0142
214.5890	0.0052
214.8430	0.0082
215.0960	0.0264
215.3500	0.0192
215.6040	0.0152
215.8570	0.0084
216.1110	0.0115
216.3650	0.0039
216.6180	0.0018
216.8720	0.0084
217.1260	0.0042
217.3790	0.0158
217.6330	0.0065
217.8860	0.0100
218.1400	0.0096
218.3940	0.0035
218.6470	0.0021
218.9010	0.0021
219.1550	0.0088
219.4080	0.0006
219.6620	-0.0035
219.9160	0.0084
220.1690	0.0171
220.4230	0.0150
220.6770	0.0131
220.9300	0.0034
221.1840	0.0004
221.4370	-0.0035
221.6910	-0.0033
221.9450	0.0028
222.1980	0.0062
222.4520	0.0107
222.7060	0.0179
222.9590	0.0157
223.2130	0.0174
223.4670	0.0150
223.7200	0.0160
223.9740	0.0160
224.2280	0.0074
224.4810	0.0121
224.7350	0.0080
224.9880	0.0126
225.2420	0.0283
225.4960	0.0210
225.7490	0.0299
226.0030	0.0281
226.2570	0.0143
226.5100	0.0018
226.7640	0.0203
227.0180	0.0216
227.2710	0.0194
227.5250	0.0124
227.7790	0.0047
228.0320	0.0141
228.2860	0.0273
228.5390	0.0200
228.7930	0.0069
229.0470	0.0130
229.3000	0.0344
229.5540	0.0351
229.8080	0.0169
230.0610	0.0182
230.3150	0.0239
230.5690	0.0064
230.8220	0.0070
231.0760	0.0131
231.3300	0.0113
231.5830	0.0143
231.8370	0.0039
232.0900	0.0035
232.3440	0.0075
232.5980	0.0109
232.8510	0.0175
233.1050	0.0119
233.3590	0.0341
233.6120	0.0185
233.8660	0.0094
234.1200	0.0118
234.3730	0.0275
234.6270	0.0218
234.8800	0.0028
235.1340	0.0057
235.3880	0.0246
235.6410	0.0122
235.8950	-0.0001
236.1490	0.0055
236.4020	0.0132
236.6560	0.0160
236.9100	0.0011
237.1630	0.0132
237.4170	0.0120
237.6710	-0.0022
237.9240	0.0060
238.1780	0.0142
238.4310	0.0120
238.6850	0.0064
238.9390	0.0124
239.1920	0.0072
239.4460	0.0231
239.7000	0.0168
239.9530	0.0007
240.2070	0.0181
240.4610	0.0202
240.7140	0.0120
240.9680	0.0079
241.2220	0.0063
241.4750	0.0077
241.7290	0.0030
241.9820	0.0063
242.2360	0.0210
242.4900	0.0162
242.7430	0.0109
242.9970	0.0385
243.2510	0.0182
243.5040	0.0121
243.7580	0.0015
244.0120	0.0048
244.2650	0.0376
244.5190	0.0321
244.7730	0.0099
245.0260	0.0092
245.2800	0.0132
245.5330	0.0227
245.7870	0.0118
246.0410	0.0117
246.2940	0.0251
246.5480	0.0175
246.8020	0.0105
247.0550	0.0144
247.3090	0.0283
247.5630	0.0222
247.8160	0.0156
248.0700	0.0189
248.3240	0.0345
248.5770	0.0170
248.8310	0.0016
249.0840	0.0115
249.3380	0.0142
249.5920	0.0210
249.8450	0.0079
250.0990	0.0162
250.3530	0.0269
250.6060	0.0167
250.8600	0.0094
251.1140	0.0016
251.3670	0.0249
251.6210	0.0231
251.8750	0.0137
252.1280	0.0191
252.3820	0.0221
252.6350	0.0198
252.8890	0.0145
253.1430	0.0048
253.3960	0.0144
253.6500	0.0244
253.9040	0.0118
254.1590	0.0019
254.4130	0.0164
254.6670	0.0301
254.9220	0.0319
255.1760	0.0365
255.4310	0.0172
255.6850	0.0169
255.9390	0.0202
256.1940	0.0058
256.4480	0.0058
256.7020	0.0102
256.9570	0.0154
257.2110	0.0187
257.4650	0.0239
257.7200	0.0476
257.9740	0.0298
258.2280	0.0212
258.4830	0.0121
258.7370	0.0096
258.9920	0.0136
259.2460	0.0131
259.5000	0.0146
259.7550	0.0245
260.0090	0.0238
260.2630	0.0125
260.5180	0.0200
260.7720	0.0188
261.0260	0.0084
261.2810	0.0047
261.5350	0.0079
261.7890	0.0114
262.0440	0.0053
262.2980	0.0249
262.5530	0.0232
262.8070	0.0110
263.0610	0.0042
263.3160	0.0143
263.5700	0.0238
263.8240	0.0105
264.0790	0.0077
264.3330	0.0038
264.5870	0.0031
264.8420	0.0313
265.0960	0.0245
265.3510	0.0292
265.6050	0.0311
265.8590	0.0216
266.1140	0.0134
266.3680	0.0168
266.6220	0.0175
266.8770	0.0203
267.1310	0.0150
267.3850	0.0215
267.6400	0.0152
267.8940	0.0131
268.1480	0.0061
268.4030	0.0108
268.6570	0.0133
268.9120	0.0078
269.1660	0.0056
269.4200	0.0132
269.6750	0.0208
269.9290	0.0197
270.1830	0.0199
270.4380	0.0199
270.6920	0.0199
270.9460	0.0179
271.2010	0.0354
271.4550	0.0144
271.7090	0.0048
271.9640	0.0143
272.2180	0.0066
272.4730	0.0003
272.7270	0.0180
272.9810	0.0267
273.2360	0.0107
273.4900	0.0091
273.7440	0.0198
273.9990	0.0245
274.2530	0.0106
274.5070	0.0042
274.7620	0.0116
275.0160	0.0143
275.2710	0.0187
275.5250	0.0146
275.7790	0.0105
276.0340	0.0102
276.2880	0.0085
276.5420	0.0236
276.7970	0.0271
277.0510	0.0234
277.3050	0.0320
277.5600	0.0191
277.8140	0.0145
278.0680	0.0262
278.3230	0.0138
278.5770	0.0156
278.8320	0.0354
279.0860	0.0346
279.3400	0.0346
279.5950	0.0222
279.8490	0.0237
280.1030	0.0198
280.3580	0.0188
280.6120	0.0193
280.8660	0.0183
281.1210	0.0204
281.3750	0.0088
281.6290	0.0041
281.8840	0.0221
282.1380	0.0424
282.3930	0.0297
282.6470	0.0209
282.9010	0.0229
283.1560	0.0154
283.4100	0.0238
283.6640	0.0163
283.9190	0.0158
284.1730	0.0124
284.4270	0.0135
284.6820	0.0126
284.9360	0.0180
285.1910	0.0213
285.4450	0.0211
285.6990	0.0148
285.9540	0.0084
286.2080	0.0190
286.4620	0.0251
286.7170	0.0147
286.9710	0.0311
287.2250	0.0408
287.4800	0.0125
287.7340	-0.0007
287.9880	0.0196
288.2430	0.0356
288.4970	0.0144
288.7520	0.0088
289.0060	0.0305
289.2600	0.0170
289.5150	0.0104
289.7690	0.0109
290.0230	0.0201
290.2780	0.0278
290.5320	0.0246
290.7860	0.0158
291.0410	0.0282
291.2950	0.0313
291.5490	0.0140
291.8040	0.0135
292.0580	0.0212
292.3130	0.0170
292.5670	0.0142
292.8210	0.0129
293.0760	0.0229
293.3300	0.0316
293.5840	0.0374
293.8390	0.0176
294.0930	0.0097
294.3470	0.0152
294.6020	0.0186
294.8560	0.0161
295.1110	0.0073
295.3650	0.0094
295.6190	0.0182
295.8740	0.0164
296.1280	0.0187
296.3820	0.0301
296.6370	0.0299
296.8910	0.0141
297.1450	0.0198
297.4000	0.0426
297.6540	0.0337
297.9080	0.0234
298.1630	0.0190
298.4170	0.0141
298.6720	0.0060
298.9260	0.0120
299.1800	0.0192
299.4350	0.0228
299.6890	0.0134
299.9430	0.0191
300.1980	0.0266
300.4520	0.0329
300.7060	0.0279
300.9610	0.0326
301.2150	0.0244
301.4690	0.0312
301.7240	0.0234
301.9780	0.0224
302.2330	0.0280
302.4870	0.0359
302.7410	0.0346
302.9960	0.0193
303.2500	0.0289
303.5040	0.0422
303.7590	0.0267
304.0130	0.0285
304.2670	0.0432
304.5220	0.0307
304.7760	0.0194
305.0310	0.0148
305.2850	0.0147
305.5390	0.0197
305.7940	0.0117
306.0480	0.0091
306.3020	0.0347
306.5570	0.0285
306.8110	0.0243
307.0650	0.0251
307.3200	0.0301
307.5740	0.0231
307.8280	0.0125
308.0830	0.0162
308.3370	0.0170
308.5920	0.0214
308.8460	0.0307
309.1000	0.0237
309.3550	0.0399
309.6090	0.0405
309.8630	0.0232
310.1180	0.0098
310.3720	0.0204
310.6260	0.0245
310.8810	0.0169
311.1350	0.0191
311.3890	0.0282
311.6440	0.0247
311.8980	0.0151
312.1530	0.0254
312.4070	0.0376
312.6610	0.0375
312.9160	0.0234
313.1700	0.0104
313.4290	0.0249
313.6880	0.0335
313.9470	0.0255
314.2060	0.0139
314.4650	0.0216
314.7240	0.0262
314.9830	0.0297
315.2420	0.0203
315.5010	0.0208
315.7600	0.0218
316.0190	0.0297
316.2780	0.0247
316.5360	0.0186
316.7950	0.0252
317.0540	0.0325
317.3130	0.0540
317.5720	0.0392
317.8310	0.0314
318.0900	0.0192
318.3490	0.0160
318.6080	0.0389
318.8670	0.0325
319.1260	0.0353
319.3850	0.0260
319.6440	0.0383
319.9030	0.0346
320.1620	0.0193
320.4210	0.0150
320.6800	0.0168
320.9390	0.0341
321.1980	0.0227
321.4570	0.0185
321.7160	0.0220
321.9750	0.0334
322.2340	0.0370
322.4930	0.0348
322.7520	0.0410
323.0100	0.0413
323.2690	0.0380
323.5280	0.0312
323.7870	0.0276
324.0460	0.0223
324.3050	0.0289
324.5640	0.0198
324.8230	0.0225
325.0820	0.0265
325.3410	0.0292
325.6000	0.0209
325.8590	0.0142
326.1180	0.0235
326.3770	0.0257
326.6360	0.0288
326.8950	0.0469
327.1540	0.0432
327.4130	0.0193
327.6720	0.0236
327.9310	0.0425
328.1900	0.0470
328.4490	0.0419
328.7080	0.0248
328.9670	0.0228
329.2260	0.0251
329.4850	0.0323
329.7430	0.0420
330.0020	0.0479
330.2610	0.0362
330.5200	0.0295
330.7790	0.0293
331.0380	0.0298
331.2970	0.0206
331.5560	0.0104
331.8150	0.0104
332.0740	0.0172
332.3330	0.0231
332.5920	0.0236
332.8510	0.0179
333.1100	0.0174
333.3690	0.0164
333.6280	0.0131
333.8870	0.0324
334.1460	0.0344
334.4050	0.0401
334.6640	0.0358
334.9230	0.0200
335.1820	0.0228
335.4410	0.0275
335.7000	0.0301
335.9590	0.0251
336.2170	0.0183
336.4760	0.0237
336.7350	0.0293
336.9940	0.0243
337.2530	0.0375
337.5120	0.0303
337.7710	0.0271
338.0300	0.0310
338.2890	0.0384
338.5480	0.0248
338.8070	0.0215
339.0660	0.0275
339.3250	0.0199
339.5840	0.0226
339.8430	0.0236
340.1020	0.0214
340.3610	0.0237
340.6200	0.0290
340.8790	0.0313
341.1380	0.0282
341.3970	0.0224
341.6560	0.0197
341.9150	0.0169
342.1740	0.0281
342.4330	0.0263
342.6910	0.0225
342.9500	0.0235
343.2090	0.0143
343.4680	0.0277
343.7270	0.0250
343.9860	0.0161
344.2450	0.0109
344.5040	0.0264
344.7630	0.0344
345.0220	0.0297
345.2810	0.0181
345.5400	0.0154
345.7990	0.0204
346.0580	0.0231
346.3170	0.0204
346.5760	0.0310
346.8350	0.0255
347.0940	0.0132
347.3530	0.0126
347.6120	0.0152
347.8710	0.0267
348.1300	0.0274
348.3890	0.0198
348.6480	0.0257
348.9070	0.0224
349.1660	0.0132
349.4240	0.0123
349.6830	0.0186
349.9420	0.0300
350.2010	0.0259
350.4600	0.0253
350.7190	0.0297
350.9780	0.0242
351.2370	0.0157
351.4960	0.0103
351.7550	0.0217
352.0140	0.0269
352.2730	0.0157
352.5320	0.0151
352.7910	0.0280
353.0500	0.0212
353.3090	0.0100
353.5680	0.0095
353.8270	0.0184
354.0860	0.0257
354.3450	0.0285
354.6040	0.0173
354.8630	0.0231
355.1220	0.0263
355.3810	0.0260
355.6400	0.0200
355.8980	0.0424
356.1570	0.0453
356.4160	0.0267
356.6750	0.0337
356.9340	0.0323
357.1930	0.0302
357.4520	0.0296
357.7110	0.0269
357.9700	0.0295
358.2290	0.0240
358.4880	0.0274
358.7470	0.0148
359.0060	0.0196
359.2650	0.0317
359.5240	0.0177
359.7830	0.0155
360.0420	0.0164
360.3010	0.0330
360.5600	0.0223
360.8190	0.0195
361.0780	0.0173
361.3370	0.0221
361.5960	0.0269
361.8550	0.0180
362.1140	0.0280
362.3720	0.0320
362.6310	0.0156
362.8900	0.0187
363.1490	0.0226
363.4080	0.0348
363.6670	0.0282
363.9260	0.0169
364.1850	0.0177
364.4440	0.0196
364.7030	0.0133
364.9620	0.0228
365.2210	0.0393
365.4800	0.0309
365.7390	0.0302
365.9990	0.0295
366.2580	0.0233
366.5180	0.0204
366.7770	0.0143
367.0370	0.0300
367.2960	0.0259
367.5560	0.0253
367.8150	0.0291
368.0750	0.0326
368.3340	0.0274
368.5940	0.0232
368.8530	0.0286
369.1130	0.0221
369.3720	0.0176
369.6320	0.0306
369.8910	0.0262
370.1500	0.0143
370.4100	0.0282
370.6690	0.0335
370.9290	0.0154
371.1880	0.0128
371.4480	0.0216
371.7070	0.0361
371.9670	0.0228
372.2260	0.0155
372.4860	0.0425
372.7450	0.0362
373.0050	0.0330
373.2640	0.0176
373.5240	0.0183
373.7830	0.0176
374.0430	0.0313
374.3020	0.0243
374.5610	0.0320
374.8210	0.0247
375.0800	0.0221
375.3400	0.0347
375.5990	0.0319
375.8590	0.0342
376.1180	0.0227
376.3780	0.0161
376.6370	0.0332
376.8970	0.0328
377.1560	0.0191
377.4160	0.0174
377.6750	0.0162
377.9350	0.0262
378.1940	0.0301
378.4540	0.0297
378.7130	0.0337
378.9720	0.0290
379.2320	0.0225
379.4910	0.0219
379.7510	0.0241
380.0100	0.0303
380.2700	0.0218
380.5290	0.0175
380.7890	0.0286
381.0480	0.0303
381.3080	0.0232
381.5670	0.0197
381.8270	0.0228
382.0860	0.0173
382.3460	0.0174
382.6050	0.0128
382.8650	0.0216
383.1240	0.0320
383.3830	0.0271
383.6430	0.0379
383.9020	0.0335
384.1620	0.0235
384.4210	0.0125
384.6810	0.0343
384.9400	0.0537
385.2000	0.0397
385.4590	0.0294
385.7190	0.0204
385.9780	0.0165
386.2380	0.0253
386.4970	0.0222
386.7570	0.0116
387.0160	0.0288
387.2760	0.0383
387.5350	0.0294
387.7940	0.0312
388.0540	0.0278
388.3130	0.0321
388.5730	0.0210
388.8320	0.0190
389.0920	0.0225
389.3510	0.0228
389.6110	0.0225
389.8700	0.0274
390.1300	0.0402
390.3890	0.0403
390.6490	0.0231
390.9080	0.0111
391.1680	0.0248
391.4270	0.0420
391.6860	0.0417
391.9460	0.0259
392.2050	0.0295
392.4650	0.0382
392.7240	0.0243
392.9840	0.0312
393.2430	0.0406
393.5030	0.0361
393.7620	0.0296
394.0220	0.0199
394.2810	0.0170
394.5410	0.0199
394.8000	0.0252
395.0600	0.0226
395.3190	0.0273
395.5790	0.0218
395.8380	0.0155
396.0970	0.0246
396.3570	0.0428
396.6160	0.0288
396.8760	0.0170
397.1350	0.0150
397.3950	0.0140
397.6540	0.0240
397.9140	0.0537
398.1730	0.0449
398.4330	0.0390
398.6920	0.0391
398.9520	0.0346
399.2110	0.0222
399.4710	0.0410
399.7300	0.0334
399.9900	0.0297
400.2490	0.0236
400.5080	0.0205
400.7680	0.0198
401.0270	0.0205
401.2870	0.0296
401.5460	0.0289
401.8060	0.0295
402.0650	0.0513
402.3250	0.0347
402.5840	0.0446
402.8440	0.0343
403.1030	0.0214
403.3630	0.0502
403.6220	0.0345
403.8820	0.0257
404.1410	0.0280
404.4010	0.0502
404.6600	0.0383
404.9260	0.0248
405.1930	0.0263
405.4590	0.0248
405.7260	0.0180
405.9920	0.0147
406.2590	0.0167
406.5250	0.0148
406.7920	0.0295
407.0580	0.0288
407.3250	0.0154
407.5910	0.0221
407.8580	0.0308
408.1240	0.0338
408.3910	0.0204
408.6570	0.0183
408.9240	0.0226
409.1900	0.0264
409.4570	0.0406
409.7230	0.0296
409.9900	0.0316
410.2560	0.0445
410.5230	0.0240
410.7890	0.0169
411.0560	0.0250
411.3220	0.0216
411.5890	0.0131
411.8550	0.0250
412.1220	0.0280
412.3880	0.0227
412.6550	0.0138
412.9210	0.0114
413.1880	0.0276
413.4540	0.0464
413.7210	0.0244
413.9870	0.0188
414.2540	0.0255
414.5200	0.0233
414.7870	0.0143
415.0530	0.0243
415.3200	0.0293
415.5860	0.0297
415.8530	0.0241
416.1190	0.0204
416.3860	0.0238
416.6520	0.0189
416.9190	0.0214
417.1850	0.0150
417.4520	0.0282
417.7180	0.0414
417.9850	0.0287
418.2510	0.0185
418.5180	0.0248
418.7840	0.0203
419.0510	0.0175
419.3170	0.0193
419.5840	0.0248
419.8500	0.0274
420.1170	0.0217
420.3830	0.0130
420.6500	0.0142
420.9160	0.0238
421.1830	0.0158
421.4490	0.0254
421.7160	0.0297
421.9820	0.0304
422.2490	0.0234
422.5150	0.0323
422.7820	0.0366
423.0480	0.0337
423.3150	0.0390
423.5810	0.0298
423.8480	0.0446
424.1140	0.0493
424.3810	0.0259
424.6470	0.0277
424.9140	0.0336
425.1800	0.0274
425.4470	0.0260
425.7130	0.0336
425.9800	0.0496
426.2460	0.0608
426.5130	0.0350
426.7790	0.0133
427.0460	0.0183
427.3120	0.0319
427.5790	0.0212
427.8450	0.0204
428.1120	0.0284
428.3780	0.0343
428.6450	0.0653
428.9110	0.0352
429.1780	0.0230
429.4440	0.0493
429.7110	0.0353
429.9770	0.0130
430.2440	0.0248
430.5100	0.0288
430.7770	0.0283
431.0430	0.0318
431.3100	0.0315
431.5760	0.0241
431.8430	0.0378
432.1090	0.0322
432.3760	0.0231
432.6420	0.0336
432.9090	0.0276
433.1750	0.0176
433.4420	0.0178
433.7080	0.0441
433.9750	0.0559
434.2410	0.0400
434.5080	0.0353
434.7740	0.0291
435.0410	0.0311
435.3070	0.0208
435.5740	0.0259
435.8400	0.0354
436.1100	0.0464
436.3790	0.0373
436.6490	0.0346
436.9180	0.0384
437.1880	0.0434
437.4570	0.0347
437.7270	0.0230
437.9960	0.0274
438.2660	0.0201
438.5350	0.0245
438.8050	0.0358
439.0740	0.0351
439.3440	0.0308
439.6130	0.0329
439.8830	0.0228
440.1520	0.0266
440.4220	0.0320
440.6910	0.0311
440.9610	0.0275
441.2300	0.0236
441.5000	0.0269
441.7690	0.0219
442.0390	0.0178
442.3080	0.0216
442.5780	0.0336
442.8470	0.0294
443.1170	0.0407
443.3860	0.0347
443.6560	0.0249
443.9250	0.0181
444.1950	0.0398
444.4640	0.0402
444.7340	0.0236
445.0030	0.0174
445.2730	0.0263
445.5420	0.0377
445.8120	0.0308
446.0810	0.0351
446.3510	0.0480
446.6200	0.0384
446.8900	0.0271
447.1590	0.0204
447.4290	0.0296
447.6980	0.0466
447.9680	0.0300
448.2380	0.0299
448.5070	0.0347
448.7770	0.0303
449.0460	0.0246
449.3160	0.0337
449.5850	0.0387
449.8550	0.0374
450.1240	0.0342
450.3940	0.0294
450.6630	0.0294
450.9330	0.0302
451.2020	0.0230
451.4720	0.0270
451.7410	0.0382
452.0110	0.0304
452.2800	0.0170
452.5500	0.0206
452.8190	0.0224
453.0890	0.0339
453.3580	0.0292
453.6280	0.0234
453.8970	0.0269
454.1670	0.0329
454.4360	0.0291
454.7060	0.0236
454.9750	0.0233
455.2450	0.0286
455.5140	0.0321
455.7840	0.0186
456.0530	0.0260
456.3230	0.0244
456.5920	0.0186
456.8620	0.0365
457.1310	0.0462
457.4010	0.0363
457.6700	0.0194
457.9400	0.0278
458.2090	0.0250
458.4790	0.0237
458.7480	0.0223
459.0180	0.0126
459.2870	0.0226
459.5570	0.0286
459.8260	0.0546
460.0960	0.0716
460.3660	0.0560
460.6350	0.0368
460.9050	0.0377
461.1740	0.0222
461.4440	0.0228
461.7130	0.0272
461.9830	0.0185
462.2520	0.0117
462.5220	0.0242
462.7910	0.0248
463.0610	0.0170
463.3300	0.0359
463.6000	0.0384
463.8690	0.0314
464.1390	0.0177
464.4080	0.0119
464.6780	0.0188
464.9470	0.0250
465.2170	0.0277
465.4860	0.0277
465.7560	0.0250
466.0250	0.0331
466.2950	0.0245
466.5640	0.0272
466.8340	0.0346
467.1030	0.0501
467.3730	0.0315
467.6420	0.0213
467.9120	0.0219
468.1810	0.0250
468.4510	0.0173
468.7200	0.0193
468.9900	0.0248
469.2590	0.0437
469.5290	0.0424
469.7980	0.0217
470.0680	0.0202
470.3370	0.0260
470.6070	0.0174
470.8760	0.0191
471.1460	0.0345
471.4150	0.0387
471.6850	0.0272
471.9540	0.0244
472.2240	0.0253
472.4930	0.0244
472.7630	0.0256
473.0330	0.0381
473.3020	0.0549
473.5720	0.0339
473.8410	0.0143
474.1110	0.0187
474.3800	0.0209
474.6500	0.0237
474.9190	0.0268
475.1890	0.0173
475.4580	0.0309
475.7280	0.0324
475.9970	0.0427
476.2670	0.0328
476.5360	0.0261
476.8060	0.0316
477.0750	0.0202
477.3450	0.0286
477.6140	0.0280
477.8840	0.0441
478.1530	0.0303
478.4230	0.0180
478.6920	0.0359
478.9620	0.0313
479.2310	0.0308
479.5010	0.0249
479.7700	0.0309
480.0400	0.0415
480.3090	0.0238
480.5790	0.0130
480.8480	0.0163
481.1180	0.0387
481.3870	0.0295
481.6570	0.0293
481.9260	0.0263
482.1960	0.0224
482.4650	0.0176
482.7350	0.0219
483.0040	0.0284
483.2740	0.0251
483.5430	0.0239
483.8130	0.0146
484.0820	0.0209
484.3520	0.0277
484.6210	0.0186
484.8910	0.0161
485.1610	0.0217
485.4300	0.0426
485.7000	0.0258
485.9690	0.0183
486.2390	0.0232
486.5080	0.0333
486.7780	0.0273
487.0470	0.0195
487.3170	0.0185
487.5860	0.0237
487.8560	0.0196
488.1250	0.0227
488.3950	0.0186
488.6640	0.0193
488.9340	0.0274
489.2030	0.0192
489.4730	0.0168
489.7420	0.0225
490.0120	0.0162
490.2810	0.0128
490.5510	0.0207
490.8200	0.0294
491.0900	0.0466
491.3590	0.0343
491.6290	0.0227
491.8980	0.0315
492.1680	0.0291
492.4370	0.0149
492.7070	0.0164
492.9760	0.0393
493.2460	0.0245
493.5150	0.0197
493.7850	0.0318
494.0540	0.0421
494.3240	0.0323
494.5930	0.0155
494.8630	0.0147
495.1320	0.0249
495.4020	0.0414
495.6710	0.0273
495.9410	0.0197
496.2100	0.0319
496.4800	0.0278
496.7490	0.0323
497.0190	0.0289
497.2890	0.0346
497.5580	0.0241
497.8280	0.0246
498.0970	0.0272
498.3670	0.0349
498.6360	0.0318
498.9060	0.0194
499.1750	0.0173
499.4450	0.0227
499.7140	0.0173
499.9840	0.0145
500.2530	0.0166
500.5230	0.0249
500.7920	0.0227
501.0620	0.0198
501.3310	0.0343
501.6010	0.0364
501.8700	0.0307
502.1400	0.0247
502.4090	0.0200
502.6790	0.0203
502.9480	0.0236
503.2180	0.0246
503.4870	0.0456
503.7570	0.0311
504.0260	0.0230
504.2960	0.0242
504.5650	0.0327
504.8350	0.0280
505.1040	0.0225
505.3740	0.0329
505.6430	0.0261
505.9130	0.0466
506.1820	0.0435
506.4520	0.0272
506.7210	0.0519
506.9910	0.0483
507.2600	0.0226
507.5300	0.0226
507.7990	0.0215
508.0690	0.0198
508.3380	0.0312
508.6080	0.0260
508.8770	0.0281
509.1470	0.0342
509.4160	0.0285
509.6860	0.0181
509.9560	0.0338
510.2250	0.0404
510.4950	0.0242
510.7640	0.0184
511.0340	0.0266
511.3030	0.0306
511.5730	0.0232
511.8420	0.0149
512.1120	0.0270
512.3810	0.0312
512.6510	0.0203
512.9200	0.0147
513.1900	0.0262
513.4590	0.0226
513.7290	0.0204
513.9980	0.0302
514.2680	0.0347
514.5370	0.0766
514.8070	0.0616
515.0760	0.0330
515.3460	0.0265
515.6150	0.0193
515.8850	0.0313
516.1540	0.0372
516.4240	0.0304
516.6930	0.0287
516.9630	0.0230
517.2320	0.0247
517.5020	0.0240
517.7710	0.0183
518.0410	0.0235
518.3100	0.0275
518.5800	0.0272
518.8490	0.0471
519.1190	0.0334
519.3880	0.0233
519.6580	0.0348
519.9270	0.0260
520.1970	0.0146
520.4660	0.0152
520.7360	0.0196
521.0050	0.0281
521.2750	0.0223
521.5440	0.0293
521.8140	0.0223
522.0840	0.0266
522.3530	0.0293
522.6230	0.0168
522.8920	0.0243
523.1620	0.0294
523.4310	0.0323
523.7010	0.0273
523.9700	0.0232
524.2400	0.0179
524.5090	0.0205
524.7790	0.0150
525.0480	0.0125
525.3180	0.0268
525.5870	0.0184
525.8570	0.0165
526.1260	0.0340
526.3960	0.0309
526.6650	0.0205
526.9350	0.0185
527.2040	0.0193
527.4740	0.0240
527.7430	0.0294
528.0130	0.0205
528.2820	0.0171
528.5520	0.0214
528.8210	0.0249
529.0910	0.0265
529.3600	0.0204
529.6300	0.0214
529.8990	0.0206
530.1690	0.0216
530.4380	0.0323
530.7080	0.0372
530.9770	0.0286
531.2470	0.0240
531.5160	0.0378
531.7860	0.0322
532.0550	0.0185
532.3250	0.0149
532.5940	0.0246
532.8640	0.0291
533.1330	0.0233
533.4030	0.0148
533.6720	0.0194
533.9420	0.0331
534.2120	0.0202
534.4810	0.0119
534.7510	0.0208
535.0200	0.0525
535.2900	0.0315
535.5590	0.0151
535.8290	0.0232
536.0980	0.0377
536.3680	0.0335
536.6370	0.0237
536.9070	0.0339
537.1760	0.0344
537.4460	0.0300
537.7150	0.0244
537.9850	0.0238
538.2540	0.0271
538.5240	0.0282
538.7930	0.0323
539.0630	0.0260
539.3320	0.0309
539.6020	0.0311
539.8710	0.0261
540.1410	0.0300
540.4100	0.0366
540.6800	0.0255
540.9490	0.0250
541.2190	0.0291
541.4880	0.0441
541.7580	0.0437
542.0270	0.0281
542.2970	0.0238
542.5660	0.0284
542.8360	0.0183
543.1050	0.0166
543.3750	0.0227
543.6440	0.0233
543.9140	0.0195
544.1830	0.0175
544.4530	0.0285
544.7220	0.0249
544.9920	0.0148
545.2610	0.0212
545.5310	0.0270
545.8000	0.0261
546.0700	0.0229
546.3460	0.0189
546.6220	0.0211
546.8970	0.0208
547.1730	0.0285
547.4490	0.0203
547.7250	0.0303
548.0010	0.0296
548.2760	0.0273
548.5520	0.0242
548.8280	0.0226
549.1040	0.0272
549.3800	0.0258
549.6550	0.0301
549.9310	0.0352
550.2070	0.0435
550.4830	0.0270
550.7590	0.0188
551.0340	0.0200
551.3100	0.0293
551.5860	0.0232
551.8620	0.0334
552.1380	0.0276
552.4130	0.0211
552.6890	0.0152
552.9650	0.0148
553.2410	0.0171
553.5170	0.0244
553.7930	0.0201
554.0680	0.0210
554.3440	0.0225
554.6200	0.0338
554.8960	0.0242
555.1720	0.0147
555.4470	0.0233
555.7230	0.0224
555.9990	0.0180
556.2750	0.0188
556.5510	0.0306
556.8260	0.0261
557.1020	0.0188
557.3780	0.0278
557.6540	0.0285
557.9300	0.0228
558.2050	0.0211
558.4810	0.0171
558.7570	0.0207
559.0330	0.0205
559.3090	0.0330
559.5840	0.0335
559.8600	0.0305
560.1360	0.0252
560.4120	0.0217
560.6880	0.0194
560.9630	0.0212
561.2390	0.0545
561.5150	0.0334
561.7910	0.0168
562.0670	0.0212
562.3420	0.0280
562.6180	0.0222
562.8940	0.0117
563.1700	0.0299
563.4460	0.0272
563.7210	0.0131
563.9970	0.0142
564.2730	0.0233
564.5490	0.0314
564.8250	0.0298
565.1000	0.0464
565.3760	0.0350
565.6520	0.0262
565.9280	0.0331
566.2040	0.0209
566.4790	0.0243
566.7550	0.0256
567.0310	0.0226
567.3070	0.0169
567.5830	0.0216
567.8580	0.0235
568.1340	0.0250
568.4100	0.0166
568.6860	0.0255
568.9620	0.0246
569.2370	0.0369
569.5130	0.0244
569.7890	0.0262
570.0650	0.0281
570.3410	0.0221
570.6170	0.0190
570.8920	0.0238
571.1680	0.0247
571.4440	0.0227
571.7200	0.0206
571.9960	0.0309
572.2710	0.0477
572.5470	0.0287
572.8230	0.0147
573.0990	0.0255
573.3750	0.0474
573.6500	0.0313
573.9260	0.0194
574.2020	0.0207
574.4780	0.0234
574.7540	0.0205
575.0290	0.0196
575.3050	0.0327
575.5810	0.0261
575.8570	0.0231
576.1330	0.0188
576.4080	0.0229
576.6840	0.0304
576.9600	0.0276
577.2390	0.0198
577.5170	0.0186
577.7960	0.0260
578.0750	0.0348
578.3540	0.0215
578.6320	0.0177
578.9110	0.0332
579.1900	0.0486
579.4690	0.0346
579.7470	0.0269
580.0260	0.0275
580.3050	0.0201
580.5840	0.0283
580.8620	0.0247
581.1410	0.0280
581.4200	0.0250
581.6990	0.0220
581.9770	0.0293
582.2560	0.0307
582.5350	0.0358
582.8140	0.0278
583.0920	0.0294
583.3710	0.0287
583.6500	0.0268
583.9290	0.0250
584.2070	0.0228
584.4860	0.0311
584.7650	0.0323
585.0430	0.0184
585.3220	0.0333
585.6010	0.0370
585.8800	0.0483
586.1580	0.0304
586.4370	0.0186
586.7160	0.0241
586.9950	0.0286
587.2730	0.0224
587.5520	0.0233
587.8310	0.0299
588.1100	0.0329
588.3880	0.0197
588.6670	0.0156
588.9460	0.0171
589.2250	0.0120
589.5030	0.0112
589.7820	0.0155
590.0610	0.0187
590.3400	0.0332
590.6180	0.0462
590.8970	0.0536
591.1760	0.0373
591.4550	0.0233
591.7330	0.0219
592.0120	0.0297
592.2910	0.0411
592.5700	0.0279
592.8480	0.0350
593.1270	0.0261
593.4060	0.0243
593.6840	0.0182
593.9630	0.0195
594.2420	0.0254
594.5210	0.0229
594.7990	0.0249
595.0780	0.0241
595.3570	0.0223
595.6360	0.0216
595.9140	0.0235
596.1930	0.0197
596.4720	0.0215
596.7510	0.0269
597.0290	0.0317
597.3080	0.0294
597.5870	0.0207
597.8660	0.0222
598.1440	0.0207
598.4230	0.0165
598.7020	0.0232
598.9810	0.0276
599.2590	0.0410
599.5380	0.0319
599.8170	0.0203
