199.8780	0.5259
200.1320	0.5363
200.3850	0.0243
200.6390	0.1240
200.8920	0.3401
201.1460	0.1951
201.4000	0.1380
201.6530	0.1641
201.9070	0.2816
202.1610	0.0194
202.4140	-0.0332
202.6680	0.3819
202.9220	0.2981
203.1750	0.2634
203.4290	0.0986
203.6830	0.3969
203.9360	0.6473
204.1900	0.3505
204.4430	0.7858
204.6970	0.9345
204.9510	0.3713
205.2040	0.0995
205.4580	0.2865
205.7120	0.6612
205.9650	0.3565
206.2190	0.3024
206.4730	0.3649
206.7260	0.2502
206.9800	0.4912
207.2330	0.2145
207.4870	-0.0674
207.7410	0.1548
207.9940	0.3996
208.2480	0.4246
208.5020	0.2041
208.7550	0.2589
209.0090	0.5536
209.2630	0.7170
209.5160	0.2569
209.7700	0.0770
210.0240	0.4946
210.2770	0.3895
210.5310	0.0631
210.7840	-0.0630
211.0380	0.0496
211.2920	-0.0866
211.5450	-0.0107
211.7990	0.5674
212.0530	0.8587
212.3060	0.6746
212.5600	0.2026
212.8140	0.1121
213.0670	0.1647
213.3210	0.2518
213.5750	0.2675
213.8280	0.4389
214.0820	0.7917
214.3350	0.4007
214.5890	0.2089
214.8430	0.2683
215.0960	0.7058
215.3500	0.5037
215.6040	0.4048
215.8570	0.2247
216.1110	0.3154
216.3650	0.1203
216.6180	0.0831
216.8720	0.2382
217.1260	0.1229
217.3790	0.4287
217.6330	0.1790
217.8860	0.2823
218.1400	0.2678
218.3940	0.1019
218.6470	0.0848
218.9010	0.0973
219.1550	0.2677
219.4080	0.0421
219.6620	-0.0724
219.9160	0.2462
220.1690	0.4602
220.4230	0.4117
220.6770	0.3653
220.9300	0.0691
221.1840	-0.0075
221.4370	-0.0694
221.6910	-0.0518
221.9450	0.0942
222.1980	0.1751
222.4520	0.2979
222.7060	0.4866
222.9590	0.4139
223.2130	0.4712
223.4670	0.4320
223.7200	0.4664
223.9740	0.4574
224.2280	0.2202
224.4810	0.3291
224.7350	0.2317
224.9880	0.3339
225.2420	0.7325
225.4960	0.5807
225.7490	0.7845
226.0030	0.7113
226.2570	0.3773
226.5100	0.0786
226.7640	0.5341
227.0180	0.5849
227.2710	0.5309
227.5250	0.3602
227.7790	0.1524
228.0320	0.3964
228.2860	0.7306
228.5390	0.5346
228.7930	0.2152
229.0470	0.3902
229.3000	0.9250
229.5540	0.9246
229.8080	0.4456
230.0610	0.4700
230.3150	0.6343
230.5690	0.1794
230.8220	0.1849
231.0760	0.3499
231.3300	0.3199
231.5830	0.4032
231.8370	0.1362
232.0900	0.1203
232.3440	0.2210
232.5980	0.3082
232.8510	0.4691
233.1050	0.3439
233.3590	0.9126
233.6120	0.4940
233.8660	0.2821
234.1200	0.3338
234.3730	0.7404
234.6270	0.5995
234.8800	0.0766
235.1340	0.1704
235.3880	0.6820
235.6410	0.3534
235.8950	0.0361
236.1490	0.1711
236.4020	0.3765
236.6560	0.4628
236.9100	0.0171
237.1630	0.3192
237.4170	0.3309
237.6710	-0.0836
237.9240	0.1567
238.1780	0.3986
238.4310	0.3358
238.6850	0.1972
238.9390	0.3628
239.1920	0.1950
239.4460	0.6168
239.7000	0.4820
239.9530	0.0482
240.2070	0.4934
240.4610	0.5587
240.7140	0.3399
240.9680	0.2249
241.2220	0.1669
241.4750	0.2318
241.7290	0.1150
241.9820	0.1931
242.2360	0.5813
242.4900	0.4532
242.7430	0.3047
242.9970	1.0282
243.2510	0.4554
243.5040	0.2995
243.7580	0.0126
244.0120	0.1189
244.2650	1.0063
244.5190	0.8566
244.7730	0.2793
245.0260	0.2747
245.2800	0.3626
245.5330	0.5949
245.7870	0.3352
246.0410	0.3361
246.2940	0.6547
246.5480	0.4656
246.8020	0.3054
247.0550	0.4140
247.3090	0.7617
247.5630	0.5979
247.8160	0.4349
248.0700	0.5089
248.3240	0.8918
248.5770	0.3877
248.8310	0.0445
249.0840	0.3417
249.3380	0.4064
249.5920	0.5728
249.8450	0.2300
250.0990	0.4734
250.3530	0.7365
250.6060	0.4386
250.8600	0.2634
251.1140	0.0526
251.3670	0.6440
251.6210	0.6150
251.8750	0.3747
252.1280	0.5154
252.3820	0.6004
252.6350	0.5532
252.8890	0.3979
253.1430	0.1439
253.3960	0.4087
253.6500	0.6638
253.9040	0.3404
254.1590	0.0653
254.4130	0.4727
254.6670	0.8552
254.9220	0.8991
255.1760	0.9886
255.4310	0.3997
255.6850	0.4104
255.9390	0.5500
256.1940	0.1440
256.4480	0.1593
256.7020	0.3155
256.9570	0.4401
257.2110	0.5095
257.4650	0.6611
257.7200	1.2702
257.9740	0.8048
258.2280	0.5642
258.4830	0.2931
258.7370	0.2689
258.9920	0.3910
259.2460	0.3793
259.5000	0.4118
259.7550	0.6701
260.0090	0.6657
260.2630	0.3681
260.5180	0.5545
260.7720	0.5244
261.0260	0.2444
261.2810	0.1505
261.5350	0.2141
261.7890	0.3224
262.0440	0.1706
262.2980	0.6636
262.5530	0.6250
262.8070	0.2976
263.0610	0.1329
263.3160	0.4247
263.5700	0.6743
263.8240	0.2683
264.0790	0.2123
264.3330	0.1205
264.5870	0.0446
264.8420	0.8383
265.0960	0.7014
265.3510	0.8201
265.6050	0.8704
265.8590	0.6151
266.1140	0.3954
266.3680	0.4786
266.6220	0.4999
266.8770	0.5633
267.1310	0.4465
267.3850	0.5960
267.6400	0.3974
267.8940	0.3743
268.1480	0.1890
268.4030	0.3218
268.6570	0.3725
268.9120	0.1666
269.1660	0.1392
269.4200	0.3866
269.6750	0.5935
269.9290	0.5543
270.1830	0.5510
270.4380	0.5543
270.6920	0.5379
270.9460	0.4744
271.2010	0.9531
271.4550	0.3684
271.7090	0.1194
271.9640	0.3982
272.2180	0.1902
272.4730	-0.0140
272.7270	0.4492
272.9810	0.7210
273.2360	0.2983
273.4900	0.2742
273.7440	0.5717
273.9990	0.7015
274.2530	0.3210
274.5070	0.1489
274.7620	0.3349
275.0160	0.4152
275.2710	0.5133
275.5250	0.4114
275.7790	0.3109
276.0340	0.2919
276.2880	0.2457
276.5420	0.6428
276.7970	0.7392
277.0510	0.6537
277.3050	0.8688
277.5600	0.5231
277.8140	0.4145
278.0680	0.7097
278.3230	0.3727
278.5770	0.4225
278.8320	0.9492
279.0860	0.9411
279.3400	0.9475
279.5950	0.6220
279.8490	0.6319
280.1030	0.5458
280.3580	0.5362
280.6120	0.5326
280.8660	0.5048
281.1210	0.5624
281.3750	0.2441
281.6290	0.1293
281.8840	0.5949
282.1380	1.1368
282.3930	0.8020
282.6470	0.5739
282.9010	0.6512
283.1560	0.4423
283.4100	0.6532
283.6640	0.4617
283.9190	0.4517
284.1730	0.3067
284.4270	0.3510
284.6820	0.3674
284.9360	0.5323
285.1910	0.6093
285.4450	0.5964
285.6990	0.4078
285.9540	0.1711
286.2080	0.5119
286.4620	0.6852
286.7170	0.4203
286.9710	0.8857
287.2250	1.1190
287.4800	0.3229
287.7340	-0.0529
287.9880	0.5235
288.2430	0.9888
288.4970	0.3563
288.7520	0.2270
289.0060	0.8158
289.2600	0.4378
289.5150	0.3044
289.7690	0.3397
290.0230	0.5749
290.2780	0.7623
290.5320	0.6763
290.7860	0.4565
291.0410	0.7657
291.2950	0.8433
291.5490	0.3841
291.8040	0.3888
292.0580	0.5806
292.3130	0.4591
292.5670	0.3984
292.8210	0.3698
293.0760	0.6428
293.3300	0.8789
293.5840	1.0227
293.8390	0.5039
294.0930	0.2729
294.3470	0.4267
294.6020	0.5241
294.8560	0.4660
295.1110	0.1972
295.3650	0.2558
295.6190	0.5276
295.8740	0.4690
296.1280	0.5125
296.3820	0.8395
296.6370	0.8354
296.8910	0.4323
297.1450	0.5578
297.4000	1.1440
297.6540	0.9132
297.9080	0.6515
298.1630	0.5258
298.4170	0.3920
298.6720	0.1825
298.9260	0.3387
299.1800	0.5354
299.4350	0.6325
299.6890	0.3892
299.9430	0.5373
300.1980	0.7328
300.4520	0.8922
300.7060	0.7935
300.9610	0.9123
301.2150	0.6835
301.4690	0.8522
301.7240	0.6379
301.9780	0.6172
302.2330	0.7561
302.4870	0.9878
302.7410	0.9790
302.9960	0.5647
303.2500	0.7855
303.5040	1.1643
303.7590	0.7644
304.0130	0.7837
304.2670	1.1901
304.5220	0.8731
304.7760	0.5741
305.0310	0.4380
305.2850	0.4321
305.5390	0.5800
305.7940	0.3644
306.0480	0.3116
306.3020	0.9938
306.5570	0.8143
306.8110	0.7068
307.0650	0.7405
307.3200	0.8763
307.5740	0.6744
307.8280	0.3874
308.0830	0.4756
308.3370	0.5198
308.5920	0.6360
308.8460	0.8722
309.1000	0.6894
309.3550	1.1162
309.6090	1.1247
309.8630	0.6860
310.1180	0.3405
310.3720	0.6279
310.6260	0.7404
310.8810	0.5563
311.1350	0.5788
311.3890	0.8365
311.6440	0.7529
311.8980	0.5015
312.1530	0.7494
312.4070	1.0735
312.6610	1.0727
312.9160	0.7137
313.1700	0.3657
313.4290	0.7516
313.6880	0.9903
313.9470	0.7862
314.2060	0.4683
314.4650	0.6870
314.7240	0.8267
314.9830	0.9383
315.2420	0.6877
315.5010	0.6876
315.7600	0.7308
316.0190	0.9470
316.2780	0.8027
316.5360	0.6446
316.7950	0.7908
317.0540	1.0071
317.3130	1.5753
317.5720	1.1728
317.8310	0.9453
318.0900	0.6578
318.3490	0.6085
318.6080	1.1917
318.8670	1.0193
319.1260	1.0899
319.3850	0.8506
319.6440	1.1812
319.9030	1.0839
320.1620	0.6893
320.4210	0.5828
320.6800	0.6303
320.9390	1.0751
321.1980	0.7786
321.4570	0.6923
321.7160	0.8233
321.9750	1.0923
322.2340	1.1553
322.4930	1.0988
322.7520	1.2883
323.0100	1.3282
323.2690	1.2406
323.5280	1.0654
323.7870	0.9523
324.0460	0.8196
324.3050	1.0224
324.5640	0.7572
324.8230	0.8230
325.0820	0.9426
325.3410	1.0324
325.6000	0.8311
325.8590	0.6407
326.1180	0.8702
326.3770	0.9458
326.6360	1.0318
326.8950	1.5199
327.1540	1.4182
327.4130	0.7814
327.6720	0.9171
327.9310	1.4253
328.1900	1.5234
328.4490	1.4104
328.7080	0.9971
328.9670	0.9219
329.2260	0.9769
329.4850	1.1772
329.7430	1.4197
330.0020	1.5737
330.2610	1.2566
330.5200	1.0878
330.7790	1.0977
331.0380	1.1397
331.2970	0.8868
331.5560	0.6023
331.8150	0.6232
332.0740	0.7962
332.3330	0.9472
332.5920	0.9644
332.8510	0.8113
333.1100	0.8328
333.3690	0.7981
333.6280	0.7077
333.8870	1.2025
334.1460	1.2690
334.4050	1.4398
334.6640	1.3360
334.9230	0.9299
335.1820	1.0161
335.4410	1.1166
335.7000	1.1531
335.9590	1.0405
336.2170	0.8719
336.4760	1.0221
336.7350	1.1824
336.9940	1.0637
337.2530	1.3908
337.5120	1.1839
337.7710	1.1086
338.0300	1.2445
338.2890	1.4399
338.5480	1.0605
338.8070	0.9935
339.0660	1.1754
339.3250	0.9652
339.5840	1.0454
339.8430	1.0952
340.1020	1.0269
340.3610	1.0897
340.6200	1.2385
340.8790	1.2848
341.1380	1.2021
341.3970	1.0466
341.6560	0.9877
341.9150	0.9275
342.1740	1.2351
342.4330	1.1630
342.6910	1.0696
342.9500	1.1257
343.2090	0.8695
343.4680	1.2338
343.7270	1.1447
343.9860	0.9266
344.2450	0.7964
344.5040	1.1946
344.7630	1.4099
345.0220	1.3046
345.2810	1.0063
345.5400	0.9075
345.7990	1.0518
346.0580	1.1564
346.3170	1.0868
346.5760	1.4029
346.8350	1.2675
347.0940	0.9048
347.3530	0.8990
347.6120	0.9671
347.8710	1.3068
348.1300	1.3505
348.3890	1.1503
348.6480	1.2961
348.9070	1.1998
349.1660	0.9680
349.4240	0.9546
349.6830	1.1353
349.9420	1.4665
350.2010	1.3632
350.4600	1.3500
350.7190	1.4803
350.9780	1.3249
351.2370	1.1100
351.4960	0.9476
351.7550	1.2956
352.0140	1.4433
352.2730	1.1491
352.5320	1.1509
352.7910	1.5239
353.0500	1.3213
353.3090	1.0112
353.5680	1.0359
353.8270	1.3118
354.0860	1.5180
354.3450	1.6237
354.6040	1.3114
354.8630	1.4575
355.1220	1.5406
355.3810	1.5470
355.6400	1.4037
355.8980	2.0262
356.1570	2.0632
356.4160	1.5711
356.6750	1.7852
356.9340	1.7782
357.1930	1.7457
357.4520	1.7600
357.7110	1.6879
357.9700	1.7898
358.2290	1.6212
358.4880	1.7131
358.7470	1.3296
359.0060	1.5195
359.2650	1.8546
359.5240	1.4709
359.7830	1.4630
360.0420	1.4930
360.3010	1.9812
360.5600	1.6862
360.8190	1.6354
361.0780	1.5478
361.3370	1.7139
361.5960	1.8113
361.8550	1.6062
362.1140	1.9213
362.3720	2.0457
362.6310	1.6016
362.8900	1.7239
363.1490	1.8519
363.4080	2.1974
363.6670	2.0361
363.9260	1.8081
364.1850	1.8237
364.4440	1.8696
364.7030	1.7094
364.9620	1.9909
365.2210	2.5080
365.4800	2.3126
365.7390	2.2961
365.9990	2.3111
366.2580	2.1512
366.5180	2.1411
366.7770	2.0047
367.0370	2.4614
367.2960	2.3164
367.5560	2.3550
367.8150	2.5502
368.0750	2.6461
368.3340	2.5544
368.5940	2.4909
368.8530	2.6869
369.1130	2.5543
369.3720	2.4420
369.6320	2.8665
369.8910	2.8028
370.1500	2.5034
370.4100	2.9265
370.6690	3.1147
370.9290	2.6371
371.1880	2.6633
371.4480	2.9701
371.7070	3.3778
371.9670	3.0217
372.2260	2.9175
372.4860	3.7009
372.7450	3.5451
373.0050	3.5505
373.2640	3.1223
373.5240	3.2452
373.7830	3.2557
374.0430	3.6257
374.3020	3.5063
374.5610	3.8216
374.8210	3.6400
375.0800	3.6343
375.3400	4.0024
375.5990	3.9699
375.8590	4.1144
376.1180	3.8466
376.3780	3.7224
376.6370	4.2277
376.8970	4.2740
377.1560	3.9913
377.4160	3.9721
377.6750	3.9290
377.9350	4.2958
378.1940	4.4715
378.4540	4.4801
378.7130	4.6318
378.9720	4.5288
379.2320	4.4107
379.4910	4.4484
379.7510	4.5663
380.0100	4.7201
380.2700	4.5188
380.5290	4.4896
380.7890	4.8807
381.0480	4.9292
381.3080	4.7799
381.5670	4.7438
381.8270	4.8505
382.0860	4.7028
382.3460	4.7657
382.6050	4.6410
382.8650	4.9638
383.1240	5.3083
383.3830	5.2123
383.6430	5.4715
383.9020	5.4117
384.1620	5.2090
384.4210	4.9264
384.6810	5.6081
384.9400	6.0733
385.2000	5.6427
385.4590	5.4779
385.7190	5.2909
385.9780	5.2188
386.2380	5.4744
386.4970	5.3327
386.7570	5.1260
387.0160	5.7048
387.2760	5.9519
387.5350	5.7503
387.7940	5.8975
388.0540	5.7971
388.3130	5.9868
388.5730	5.6811
388.8320	5.6629
389.0920	5.8059
389.3510	5.8247
389.6110	5.8835
389.8700	6.0269
390.1300	6.3625
390.3890	6.3418
390.6490	5.9967
390.9080	5.7078
391.1680	6.1583
391.4270	6.5772
391.6860	6.5853
391.9460	6.1302
392.2050	6.3313
392.4650	6.6214
392.7240	6.2586
392.9840	6.4881
393.2430	6.7576
393.5030	6.6491
393.7620	6.4841
394.0220	6.2249
394.2810	6.1778
394.5410	6.3196
394.8000	6.4275
395.0600	6.3881
395.3190	6.6503
395.5790	6.5136
395.8380	6.3547
396.0970	6.5694
396.3570	7.0890
396.6160	6.7344
396.8760	6.4984
397.1350	6.3601
397.3950	6.3159
397.6540	6.6608
397.9140	7.4602
398.1730	7.2397
398.4330	7.1957
398.6920	7.1997
398.9520	7.1435
399.2110	6.8416
399.4710	7.3060
399.7300	7.0768
399.9900	7.0361
400.2490	6.9472
400.5080	6.9155
400.7680	6.8846
401.0270	6.9122
401.2870	7.1912
401.5460	7.1559
401.8060	7.2032
402.0650	7.7287
402.3250	7.3107
402.5840	7.6406
402.8440	7.3835
403.1030	7.1237
403.3630	7.8755
403.6220	7.4471
403.8820	7.2787
404.1410	7.3607
404.4010	7.9480
404.6600	7.6480
404.9260	7.3491
405.1930	7.3814
405.4590	7.3681
405.7260	7.2083
405.9920	7.1268
406.2590	7.2821
406.5250	7.2606
406.7920	7.6205
407.0580	7.5992
407.3250	7.2409
407.5910	7.4503
407.8580	7.7323
408.1240	7.8522
408.3910	7.4982
408.6570	7.3800
408.9240	7.5545
409.1900	7.6690
409.4570	8.0752
409.7230	7.8152
409.9900	7.9030
410.2560	8.0845
410.5230	7.6378
410.7890	7.5687
411.0560	7.8012
411.3220	7.6879
411.5890	7.4846
411.8550	7.8303
412.1220	7.8985
412.3880	7.7568
412.6550	7.5613
412.9210	7.5397
413.1880	7.9762
413.4540	8.4183
413.7210	7.8122
413.9870	7.7429
414.2540	7.8781
414.5200	7.7881
414.7870	7.6463
415.0530	7.9749
415.3200	8.0773
415.5860	8.1047
415.8530	7.9472
416.1190	7.8605
416.3860	7.9916
416.6520	7.7758
416.9190	7.8902
417.1850	7.7145
417.4520	8.0697
417.7180	8.4126
417.9850	8.1364
418.2510	7.8998
418.5180	8.0473
418.7840	7.8250
419.0510	7.8598
419.3170	7.9293
419.5840	8.0466
419.8500	8.1076
420.1170	7.9945
420.3830	7.7547
420.6500	7.7602
420.9160	8.0325
421.1830	7.7645
421.4490	8.0281
421.7160	8.1609
421.9820	8.2376
422.2490	8.0707
422.5150	8.3082
422.7820	8.3622
423.0480	8.2722
423.3150	8.4406
423.5810	8.2399
423.8480	8.6827
424.1140	8.7395
424.3810	8.1238
424.6470	8.1957
424.9140	8.3819
425.1800	8.2233
425.4470	8.1889
425.7130	8.2819
425.9800	8.6952
426.2460	8.8215
426.5130	8.2915
426.7790	7.8145
427.0460	7.9586
427.3120	8.3268
427.5790	8.0662
427.8450	8.0713
428.1120	8.2467
428.3780	8.4707
428.6450	9.2396
428.9110	8.3138
429.1780	8.1697
429.4440	8.7598
429.7110	8.4482
429.9770	7.8585
430.2440	8.2197
430.5100	8.3241
430.7770	8.3353
431.0430	8.4493
431.3100	8.4144
431.5760	8.1632
431.8430	8.5037
432.1090	8.3024
432.3760	8.1387
432.6420	8.4013
432.9090	8.2455
433.1750	8.0375
433.4420	8.0284
433.7080	8.7148
433.9750	9.0080
434.2410	8.5544
434.5080	8.5059
434.7740	8.3828
435.0410	8.3822
435.3070	8.0614
435.5740	8.2319
435.8400	8.4156
436.1100	8.7317
436.3790	8.4903
436.6490	8.4144
436.9180	8.5141
437.1880	8.6759
437.4570	8.3624
437.7270	8.0392
437.9960	8.2191
438.2660	7.9915
438.5350	8.1656
438.8050	8.3807
439.0740	8.3550
439.3440	8.2451
439.6130	8.2841
439.8830	7.9578
440.1520	8.0585
440.4220	8.1768
440.6910	8.1483
440.9610	8.0996
441.2300	7.9338
441.5000	8.0070
441.7690	7.9128
442.0390	7.8072
442.3080	7.9280
442.5780	8.2008
442.8470	8.0836
443.1170	8.4151
443.3860	8.1798
443.6560	7.9330
443.9250	7.7391
444.1950	8.3584
444.4640	8.3146
444.7340	7.8919
445.0030	7.7295
445.2730	7.8943
445.5420	8.2574
445.8120	8.0404
446.0810	8.0691
446.3510	8.3814
446.6200	8.1960
446.8900	7.9452
447.1590	7.7265
447.4290	8.0284
447.6980	8.4491
447.9680	7.9655
448.2380	8.0019
448.5070	8.1002
448.7770	7.9788
449.0460	7.8454
449.3160	8.0305
449.5850	8.1611
449.8550	8.1435
450.1240	8.0236
450.3940	7.9051
450.6630	7.9523
450.9330	7.9678
451.2020	7.7559
451.4720	7.9345
451.7410	8.2047
452.0110	7.9235
452.2800	7.5951
452.5500	7.6715
452.8190	7.7240
453.0890	8.0353
453.3580	7.9299
453.6280	7.7206
453.8970	7.7848
454.1670	8.0046
454.4360	7.8606
454.7060	7.7415
454.9750	7.7054
455.2450	7.8038
455.5140	7.8983
455.7840	7.5572
456.0530	7.7098
456.3230	7.6176
456.5920	7.5381
456.8620	7.9480
457.1310	8.0956
457.4010	7.8558
457.6700	7.4375
457.9400	7.6735
458.2090	7.5689
458.4790	7.5848
458.7480	7.5577
459.0180	7.2240
459.2870	7.5166
459.5570	7.6411
459.8260	8.2525
460.0960	8.6720
460.3660	8.2958
460.6350	7.8088
460.9050	7.8486
461.1740	7.3687
461.4440	7.4937
461.7130	7.5739
461.9830	7.2566
462.2520	7.0419
462.5220	7.3587
462.7910	7.3794
463.0610	7.2279
463.3300	7.7073
463.6000	7.7445
463.8690	7.5902
464.1390	7.1731
464.4080	7.0052
464.6780	7.2291
464.9470	7.3329
465.2170	7.3570
465.4860	7.3764
465.7560	7.3215
466.0250	7.5705
466.2950	7.2726
466.5640	7.3096
466.8340	7.5373
467.1030	7.8280
467.3730	7.4404
467.6420	7.1519
467.9120	7.1503
468.1810	7.1964
468.4510	6.9523
468.7200	7.0568
468.9900	7.1737
469.2590	7.6198
469.5290	7.6236
469.7980	7.0592
470.0680	7.0094
470.3370	7.0840
470.6070	6.8479
470.8760	6.9288
471.1460	7.3220
471.4150	7.3658
471.6850	7.0907
471.9540	7.0390
472.2240	7.0357
472.4930	6.9422
472.7630	6.8915
473.0330	7.2205
473.3020	7.7112
473.5720	7.1196
473.8410	6.5322
474.1110	6.7115
474.3800	6.8242
474.6500	6.8405
474.9190	6.8823
475.1890	6.6206
475.4580	7.0388
475.7280	6.9856
475.9970	7.1235
476.2670	6.9002
476.5360	6.7604
476.8060	6.9030
477.0750	6.5601
477.3450	6.8242
477.6140	6.8108
477.8840	7.2056
478.1530	6.8093
478.4230	6.4618
478.6920	6.9722
478.9620	6.7582
479.2310	6.7328
479.5010	6.5943
479.7700	6.7213
480.0400	6.9557
480.3090	6.4635
480.5790	6.2148
480.8480	6.2937
481.1180	6.8950
481.3870	6.6168
481.6570	6.5710
481.9260	6.4494
482.1960	6.4016
482.4650	6.2038
482.7350	6.3511
483.0040	6.5200
483.2740	6.3618
483.5430	6.3079
483.8130	5.9747
484.0820	6.1903
484.3520	6.3451
484.6210	6.0612
484.8910	5.9846
485.1610	6.1665
485.4300	6.7264
485.7000	6.1778
485.9690	6.0288
486.2390	6.1466
486.5080	6.3922
486.7780	6.1879
487.0470	5.9779
487.3170	5.9738
487.5860	6.0810
487.8560	5.9470
488.1250	6.0521
488.3950	5.8287
488.6640	5.8996
488.9340	6.1047
489.2030	5.8339
489.4730	5.7334
489.7420	5.8525
490.0120	5.6845
490.2810	5.6184
490.5510	5.7780
490.8200	6.0102
491.0900	6.4616
491.3590	6.1128
491.6290	5.7968
491.8980	6.0236
492.1680	5.9500
492.4370	5.5486
492.7070	5.5904
492.9760	6.1892
493.2460	5.7099
493.5150	5.6735
493.7850	5.9721
494.0540	6.2008
494.3240	5.9348
494.5930	5.4271
494.8630	5.4038
495.1320	5.6885
495.4020	6.0042
495.6710	5.6305
495.9410	5.5113
496.2100	5.7981
496.4800	5.6874
496.7490	5.7782
497.0190	5.6183
497.2890	5.8095
497.5580	5.5043
497.8280	5.5289
498.0970	5.5494
498.3670	5.7457
498.6360	5.6504
498.9060	5.3355
499.1750	5.2209
499.4450	5.2750
499.7140	5.1336
499.9840	5.0725
500.2530	5.0932
500.5230	5.3165
500.7920	5.2958
501.0620	5.2203
501.3310	5.5857
501.6010	5.6147
501.8700	5.4862
502.1400	5.2616
502.4090	5.1189
502.6790	5.1325
502.9480	5.1877
503.2180	5.1343
503.4870	5.7154
503.7570	5.2233
504.0260	5.0597
504.2960	5.0902
504.5650	5.2091
504.8350	5.1251
505.1040	5.0308
505.3740	5.2176
505.6430	4.9791
505.9130	5.5293
506.1820	5.3396
506.4520	4.9748
506.7210	5.4912
506.9910	5.4617
507.2600	4.8449
507.5300	4.8813
507.7990	4.7994
508.0690	4.7042
508.3380	5.0687
508.6080	4.8418
508.8770	4.9397
509.1470	5.0951
509.4160	4.9218
509.6860	4.5371
509.9560	5.0105
510.2250	5.1778
510.4950	4.7014
510.7640	4.5602
511.0340	4.7262
511.3030	4.8233
511.5730	4.6243
511.8420	4.3336
512.1120	4.6952
512.3810	4.7878
512.6510	4.4579
512.9200	4.2930
513.1900	4.5739
513.4590	4.4194
513.7290	4.2800
513.9980	4.5691
514.2680	4.7119
514.5370	5.7746
514.8070	5.3374
515.0760	4.6148
515.3460	4.4179
515.6150	4.1820
515.8850	4.5327
516.1540	4.5594
516.4240	4.3919
516.6930	4.3575
516.9630	4.1477
517.2320	4.2086
517.5020	4.1588
517.7710	3.9656
518.0410	4.1305
518.3100	4.2174
518.5800	4.1872
518.8490	4.6813
519.1190	4.3078
519.3880	4.0452
519.6580	4.3282
519.9270	4.0634
520.1970	3.7382
520.4660	3.7179
520.7360	3.8334
521.0050	4.0692
521.2750	3.8921
521.5440	4.0802
521.8140	3.8147
522.0840	3.9258
522.3530	4.0542
522.6230	3.6467
522.8920	3.8912
523.1620	4.0457
523.4310	4.0597
523.7010	3.9187
523.9700	3.7641
524.2400	3.5870
524.5090	3.6923
524.7790	3.4818
525.0480	3.3570
525.3180	3.7940
525.5870	3.5038
525.8570	3.4725
526.1260	3.9727
526.3960	3.8477
526.6650	3.5392
526.9350	3.4671
527.2040	3.4647
527.4740	3.6283
527.7430	3.8122
528.0130	3.5085
528.2820	3.3975
528.5520	3.4727
528.8210	3.5843
529.0910	3.6050
529.3600	3.3761
529.6300	3.4136
529.8990	3.3907
530.1690	3.4374
530.4380	3.7074
530.7080	3.8078
530.9770	3.5606
531.2470	3.4430
531.5160	3.7756
531.7860	3.5882
532.0550	3.2163
532.3250	3.1084
532.5940	3.3815
532.8640	3.4449
533.1330	3.2877
533.4030	3.0575
533.6720	3.1426
533.9420	3.4589
534.2120	3.0729
534.4810	2.8640
534.7510	3.1178
535.0200	3.9470
535.2900	3.3345
535.5590	2.9575
535.8290	3.2114
536.0980	3.5493
536.3680	3.4187
536.6370	3.1582
536.9070	3.4474
537.1760	3.4434
537.4460	3.2998
537.7150	3.1123
537.9850	3.0733
538.2540	3.1542
538.5240	3.1813
538.7930	3.2823
539.0630	3.0436
539.3320	3.1809
539.6020	3.1791
539.8710	3.0272
540.1410	3.1091
540.4100	3.2728
540.6800	2.9583
540.9490	2.9233
541.2190	3.0353
541.4880	3.3960
541.7580	3.4060
542.0270	2.9590
542.2970	2.7930
542.5660	2.9179
542.8360	2.5914
543.1050	2.6136
543.3750	2.7634
543.6440	2.7373
543.9140	2.6301
544.1830	2.5723
544.4530	2.8771
544.7220	2.7588
544.9920	2.4274
545.2610	2.6204
545.5310	2.8024
545.8000	2.7495
546.0700	2.6112
546.3460	2.5135
546.6220	2.5788
546.8970	2.5223
547.1730	2.7520
547.4490	2.4968
547.7250	2.7294
548.0010	2.7075
548.2760	2.6688
548.5520	2.5856
548.8280	2.5586
549.1040	2.6659
549.3800	2.5359
549.6550	2.7113
549.9310	2.8396
550.2070	3.0340
550.4830	2.5148
550.7590	2.3176
551.0340	2.2992
551.3100	2.5985
551.5860	2.4306
551.8620	2.6836
552.1380	2.4860
552.4130	2.2901
552.6890	2.1087
552.9650	2.1405
553.2410	2.1844
553.5170	2.3589
553.7930	2.2213
554.0680	2.2691
554.3440	2.2919
554.6200	2.6005
554.8960	2.2708
555.1720	2.0507
555.4470	2.2766
555.7230	2.2358
555.9990	2.1135
556.2750	2.1279
556.5510	2.3937
556.8260	2.2548
557.1020	2.0655
557.3780	2.3022
557.6540	2.3140
557.9300	2.1258
558.2050	2.1085
558.4810	1.9632
558.7570	2.0560
559.0330	2.0023
559.3090	2.3769
559.5840	2.3805
559.8600	2.2853
560.1360	2.1280
560.4120	2.0270
560.6880	1.9812
560.9630	2.0276
561.2390	2.8825
561.5150	2.2431
561.7910	1.8550
562.0670	1.9867
562.3420	2.1677
562.6180	1.9755
562.8940	1.6380
563.1700	2.1592
563.4460	2.0774
563.7210	1.6645
563.9970	1.7050
564.2730	1.9497
564.5490	2.1638
564.8250	2.1256
565.1000	2.5740
565.3760	2.2541
565.6520	2.0254
565.9280	2.1536
566.2040	1.7556
566.4790	1.8897
566.7550	1.9291
567.0310	1.8577
567.3070	1.6844
567.5830	1.7905
567.8580	1.8205
568.1340	1.9029
568.4100	1.6441
568.6860	1.8999
568.9620	1.8574
569.2370	2.1867
569.5130	1.7686
569.7890	1.8462
570.0650	1.9121
570.3410	1.7466
570.6170	1.6368
570.8920	1.7756
571.1680	1.7998
571.4440	1.7122
571.7200	1.6783
571.9960	1.9659
572.2710	2.3639
572.5470	1.8515
572.8230	1.4777
573.0990	1.7908
573.3750	2.3528
573.6500	1.8990
573.9260	1.6004
574.2020	1.6257
574.4780	1.6871
574.7540	1.6129
575.0290	1.5799
575.3050	1.9141
575.5810	1.7016
575.8570	1.6321
576.1330	1.5049
576.4080	1.6065
576.6840	1.8132
576.9600	1.7100
577.2390	1.5115
577.5170	1.4495
577.7960	1.6558
578.0750	1.8762
578.3540	1.4878
578.6320	1.3853
578.9110	1.8093
579.1900	2.2005
579.4690	1.8135
579.7470	1.6380
580.0260	1.6343
580.3050	1.4261
580.5840	1.6820
580.8620	1.5236
581.1410	1.6202
581.4200	1.5693
581.6990	1.4873
581.9770	1.6607
582.2560	1.6765
582.5350	1.8201
582.8140	1.6057
583.0920	1.6312
583.3710	1.6108
583.6500	1.5558
583.9290	1.4810
584.2070	1.3885
584.4860	1.6380
584.7650	1.6452
585.0430	1.2519
585.3220	1.6652
585.6010	1.7664
585.8800	2.0670
586.1580	1.5563
586.4370	1.2338
586.7160	1.4056
586.9950	1.5466
587.2730	1.3854
587.5520	1.3918
587.8310	1.5884
588.1100	1.6626
588.3880	1.2494
588.6670	1.1145
588.9460	1.1170
589.2250	0.9517
589.5030	0.9712
589.7820	1.0770
590.0610	1.1802
590.3400	1.5679
590.6180	1.8881
590.8970	2.0921
591.1760	1.6366
591.4550	1.2947
591.7330	1.2910
592.0120	1.4712
592.2910	1.7267
592.5700	1.4005
592.8480	1.5649
593.1270	1.2708
593.4060	1.2776
593.6840	1.0573
593.9630	1.1542
594.2420	1.3263
594.5210	1.2061
594.7990	1.2579
595.0780	1.2334
595.3570	1.1630
595.6360	1.1502
595.9140	1.2027
596.1930	1.0913
596.4720	1.1175
596.7510	1.2831
597.0290	1.4078
597.3080	1.3455
597.5870	1.0696
597.8660	1.1266
598.1440	1.0883
598.4230	0.9818
598.7020	1.1771
598.9810	1.3041
599.2590	1.6084
599.5380	1.3486
599.8170	1.0604
