199.8780	0.1129
200.1320	0.1159
200.3850	0.0039
200.6390	0.0241
200.8920	0.0709
201.1460	0.0402
201.4000	0.0269
201.6530	0.0305
201.9070	0.0561
202.1610	0.0030
202.4140	-0.0094
202.6680	0.0795
202.9220	0.0610
203.1750	0.0468
203.4290	0.0116
203.6830	0.0825
203.9360	0.1410
204.1900	0.0696
204.4430	0.1624
204.6970	0.1973
204.9510	0.0785
205.2040	0.0194
205.4580	0.0567
205.7120	0.1391
205.9650	0.0727
206.2190	0.0571
206.4730	0.0773
206.7260	0.0562
206.9800	0.1010
207.2330	0.0367
207.4870	-0.0182
207.7410	0.0411
207.9940	0.0914
208.2480	0.0929
208.5020	0.0420
208.7550	0.0540
209.0090	0.1141
209.2630	0.1489
209.5160	0.0545
209.7700	0.0148
210.0240	0.1005
210.2770	0.0779
210.5310	0.0074
210.7840	-0.0119
211.0380	0.0098
211.2920	-0.0190
211.5450	-0.0048
211.7990	0.1178
212.0530	0.1821
212.3060	0.1389
212.5600	0.0409
212.8140	0.0242
213.0670	0.0332
213.3210	0.0524
213.5750	0.0559
213.8280	0.0899
214.0820	0.1688
214.3350	0.0827
214.5890	0.0374
214.8430	0.0504
215.0960	0.1432
215.3500	0.0996
215.6040	0.0842
215.8570	0.0456
216.1110	0.0628
216.3650	0.0223
216.6180	0.0150
216.8720	0.0494
217.1260	0.0252
217.3790	0.0915
217.6330	0.0360
217.8860	0.0552
218.1400	0.0557
218.3940	0.0224
218.6470	0.0135
218.9010	0.0142
219.1550	0.0480
219.4080	0.0023
219.6620	-0.0176
219.9160	0.0491
220.1690	0.0936
220.4230	0.0833
220.6770	0.0724
220.9300	0.0184
221.1840	0.0002
221.4370	-0.0182
221.6910	-0.0143
221.9450	0.0172
222.1980	0.0344
222.4520	0.0649
222.7060	0.1027
222.9590	0.0839
223.2130	0.0994
223.4670	0.0885
223.7200	0.0924
223.9740	0.0891
224.2280	0.0386
224.4810	0.0695
224.7350	0.0506
224.9880	0.0713
225.2420	0.1577
225.4960	0.1205
225.7490	0.1717
226.0030	0.1594
226.2570	0.0826
226.5100	0.0122
226.7640	0.1155
227.0180	0.1197
227.2710	0.1125
227.5250	0.0742
227.7790	0.0277
228.0320	0.0824
228.2860	0.1562
228.5390	0.1138
228.7930	0.0403
229.0470	0.0753
229.3000	0.1980
229.5540	0.2011
229.8080	0.0918
230.0610	0.0940
230.3150	0.1299
230.5690	0.0354
230.8220	0.0367
231.0760	0.0729
231.3300	0.0640
231.5830	0.0822
231.8370	0.0232
232.0900	0.0206
232.3440	0.0431
232.5980	0.0607
232.8510	0.1027
233.1050	0.0686
233.3590	0.1921
233.6120	0.1030
233.8660	0.0574
234.1200	0.0701
234.3730	0.1552
234.6270	0.1282
234.8800	0.0190
235.1340	0.0338
235.3880	0.1435
235.6410	0.0687
235.8950	-0.0011
236.1490	0.0280
236.4020	0.0707
236.6560	0.0960
236.9100	0.0120
237.1630	0.0736
237.4170	0.0696
237.6710	-0.0077
237.9240	0.0396
238.1780	0.0806
238.4310	0.0641
238.6850	0.0339
238.9390	0.0711
239.1920	0.0457
239.4460	0.1347
239.7000	0.0982
239.9530	0.0043
240.2070	0.1024
240.4610	0.1126
240.7140	0.0650
240.9680	0.0427
241.2220	0.0353
241.4750	0.0471
241.7290	0.0193
241.9820	0.0392
242.2360	0.1222
242.4900	0.0964
242.7430	0.0659
242.9970	0.2191
243.2510	0.1088
243.5040	0.0690
243.7580	0.0107
244.0120	0.0279
244.2650	0.2171
244.5190	0.1868
244.7730	0.0565
245.0260	0.0520
245.2800	0.0731
245.5330	0.1259
245.7870	0.0708
246.0410	0.0705
246.2940	0.1408
246.5480	0.0974
246.8020	0.0606
247.0550	0.0853
247.3090	0.1617
247.5630	0.1263
247.8160	0.0888
248.0700	0.1037
248.3240	0.1901
248.5770	0.0938
248.8310	0.0123
249.0840	0.0643
249.3380	0.0812
249.5920	0.1191
249.8450	0.0475
250.0990	0.0982
250.3530	0.1543
250.6060	0.0956
250.8600	0.0547
251.1140	0.0077
251.3670	0.1354
251.6210	0.1277
251.8750	0.0782
252.1280	0.1058
252.3820	0.1273
252.6350	0.1139
252.8890	0.0837
253.1430	0.0290
253.3960	0.0832
253.6500	0.1405
253.9040	0.0687
254.1590	0.0107
254.4130	0.0952
254.6670	0.1727
254.9220	0.1814
255.1760	0.2122
255.4310	0.1019
255.6850	0.0981
255.9390	0.1166
256.1940	0.0311
256.4480	0.0285
256.7020	0.0598
256.9570	0.0890
257.2110	0.1032
257.4650	0.1363
257.7200	0.2734
257.9740	0.1733
258.2280	0.1200
258.4830	0.0704
258.7370	0.0593
258.9920	0.0806
259.2460	0.0754
259.5000	0.0833
259.7550	0.1411
260.0090	0.1387
260.2630	0.0742
260.5180	0.1169
260.7720	0.1074
261.0260	0.0488
261.2810	0.0311
261.5350	0.0473
261.7890	0.0660
262.0440	0.0312
262.2980	0.1382
262.5530	0.1305
262.8070	0.0616
263.0610	0.0251
263.3160	0.0794
263.5700	0.1346
263.8240	0.0655
264.0790	0.0470
264.3330	0.0240
264.5870	0.0214
264.8420	0.1815
265.0960	0.1427
265.3510	0.1718
265.6050	0.1829
265.8590	0.1245
266.1140	0.0803
266.3680	0.0992
266.6220	0.1004
266.8770	0.1137
267.1310	0.0885
267.3850	0.1248
267.6400	0.0877
267.8940	0.0790
268.1480	0.0391
268.4030	0.0654
268.6570	0.0783
268.9120	0.0491
269.1660	0.0329
269.4200	0.0793
269.6750	0.1198
269.9290	0.1144
270.1830	0.1134
270.4380	0.1124
270.6920	0.1098
270.9460	0.0993
271.2010	0.2011
271.4550	0.0866
271.7090	0.0316
271.9640	0.0810
272.2180	0.0380
272.4730	0.0023
272.7270	0.1023
272.9810	0.1560
273.2360	0.0671
273.4900	0.0555
273.7440	0.1157
273.9990	0.1419
274.2530	0.0625
274.5070	0.0255
274.7620	0.0677
275.0160	0.0839
275.2710	0.1086
275.5250	0.0847
275.7790	0.0623
276.0340	0.0598
276.2880	0.0476
276.5420	0.1328
276.7970	0.1530
277.0510	0.1338
277.3050	0.1839
277.5600	0.1105
277.8140	0.0843
278.0680	0.1503
278.3230	0.0824
278.5770	0.0942
278.8320	0.2048
279.0860	0.1949
279.3400	0.1975
279.5950	0.1337
279.8490	0.1380
280.1030	0.1141
280.3580	0.1103
280.6120	0.1112
280.8660	0.1081
281.1210	0.1175
281.3750	0.0484
281.6290	0.0256
281.8840	0.1274
282.1380	0.2450
282.3930	0.1710
282.6470	0.1190
282.9010	0.1322
283.1560	0.0870
283.4100	0.1326
283.6640	0.0935
283.9190	0.0913
284.1730	0.0711
284.4270	0.0786
284.6820	0.0718
284.9360	0.1080
285.1910	0.1274
285.4450	0.1206
285.6990	0.0834
285.9540	0.0488
286.2080	0.1123
286.4620	0.1414
286.7170	0.0837
286.9710	0.1791
287.2250	0.2268
287.4800	0.0739
287.7340	0.0010
287.9880	0.1150
288.2430	0.2106
288.4970	0.0869
288.7520	0.0528
289.0060	0.1700
289.2600	0.0966
289.5150	0.0603
289.7690	0.0645
290.0230	0.1153
290.2780	0.1595
290.5320	0.1449
290.7860	0.0972
291.0410	0.1591
291.2950	0.1756
291.5490	0.0782
291.8040	0.0769
292.0580	0.1194
292.3130	0.0925
292.5670	0.0780
292.8210	0.0730
293.0760	0.1335
293.3300	0.1841
293.5840	0.2144
293.8390	0.1007
294.0930	0.0524
294.3470	0.0851
294.6020	0.1084
294.8560	0.0932
295.1110	0.0464
295.3650	0.0595
295.6190	0.1075
295.8740	0.0964
296.1280	0.1104
296.3820	0.1779
296.6370	0.1761
296.8910	0.0811
297.1450	0.1111
297.4000	0.2374
297.6540	0.1919
297.9080	0.1353
298.1630	0.1090
298.4170	0.0793
298.6720	0.0365
298.9260	0.0663
299.1800	0.1046
299.4350	0.1261
299.6890	0.0724
299.9430	0.1058
300.1980	0.1496
300.4520	0.1827
300.7060	0.1597
300.9610	0.1852
301.2150	0.1374
301.4690	0.1772
301.7240	0.1319
301.9780	0.1208
302.2330	0.1526
302.4870	0.2028
302.7410	0.2020
302.9960	0.1109
303.2500	0.1596
303.5040	0.2329
303.7590	0.1465
304.0130	0.1574
304.2670	0.2404
304.5220	0.1716
304.7760	0.1102
305.0310	0.0850
305.2850	0.0821
305.5390	0.1075
305.7940	0.0649
306.0480	0.0527
306.3020	0.1968
306.5570	0.1594
306.8110	0.1347
307.0650	0.1367
307.3200	0.1683
307.5740	0.1282
307.8280	0.0668
308.0830	0.0896
308.3370	0.0970
308.5920	0.1187
308.8460	0.1733
309.1000	0.1343
309.3550	0.2239
309.6090	0.2236
309.8630	0.1275
310.1180	0.0517
310.3720	0.1112
310.6260	0.1365
310.8810	0.0966
311.1350	0.1034
311.3890	0.1536
311.6440	0.1363
311.8980	0.0818
312.1530	0.1393
312.4070	0.2103
312.6610	0.2041
312.9160	0.1237
313.1700	0.0556
313.4290	0.1393
313.6880	0.1882
313.9470	0.1422
314.2060	0.0736
314.4650	0.1164
314.7240	0.1428
314.9830	0.1663
315.2420	0.1156
315.5010	0.1156
315.7600	0.1219
316.0190	0.1633
316.2780	0.1381
316.5360	0.1044
316.7950	0.1348
317.0540	0.1770
317.3130	0.3011
317.5720	0.2159
317.8310	0.1664
318.0900	0.1037
318.3490	0.0911
318.6080	0.2162
318.8670	0.1803
319.1260	0.1985
319.3850	0.1444
319.6440	0.2132
319.9030	0.1906
320.1620	0.1045
320.4210	0.0816
320.6800	0.0928
320.9390	0.1910
321.1980	0.1236
321.4570	0.1020
321.7160	0.1215
321.9750	0.1838
322.2340	0.2044
322.4930	0.1900
322.7520	0.2311
323.0100	0.2360
323.2690	0.2187
323.5280	0.1815
323.7870	0.1591
324.0460	0.1263
324.3050	0.1607
324.5640	0.1126
324.8230	0.1248
325.0820	0.1472
325.3410	0.1644
325.6000	0.1190
325.8590	0.0805
326.1180	0.1317
326.3770	0.1469
326.6360	0.1641
326.8950	0.2661
327.1540	0.2497
327.4130	0.1120
327.6720	0.1307
327.9310	0.2399
328.1900	0.2623
328.4490	0.2355
328.7080	0.1404
328.9670	0.1263
329.2260	0.1408
329.4850	0.1888
329.7430	0.2390
330.0020	0.2721
330.2610	0.2083
330.5200	0.1689
330.7790	0.1630
331.0380	0.1687
331.2970	0.1198
331.5560	0.0590
331.8150	0.0599
332.0740	0.0983
332.3330	0.1309
332.5920	0.1328
332.8510	0.1025
333.1100	0.1069
333.3690	0.0962
333.6280	0.0756
333.8870	0.1835
334.1460	0.1971
334.4050	0.2304
334.6640	0.2064
334.9230	0.1168
335.1820	0.1326
335.4410	0.1564
335.7000	0.1674
335.9590	0.1423
336.2170	0.1050
336.4760	0.1348
336.7350	0.1692
336.9940	0.1440
337.2530	0.2158
337.5120	0.1747
337.7710	0.1517
338.0300	0.1728
338.2890	0.2148
338.5480	0.1422
338.8070	0.1231
339.0660	0.1629
339.3250	0.1213
339.5840	0.1326
339.8430	0.1405
340.1020	0.1299
340.3610	0.1418
340.6200	0.1703
340.8790	0.1825
341.1380	0.1662
341.3970	0.1335
341.6560	0.1200
341.9150	0.1039
342.1740	0.1648
342.4330	0.1502
342.6910	0.1325
342.9500	0.1445
343.2090	0.0886
343.4680	0.1658
343.7270	0.1498
343.9860	0.0972
344.2450	0.0694
344.5040	0.1567
344.7630	0.2012
345.0220	0.1718
345.2810	0.1081
345.5400	0.0922
345.7990	0.1179
346.0580	0.1357
346.3170	0.1235
346.5760	0.1843
346.8350	0.1504
347.0940	0.0788
347.3530	0.0805
347.6120	0.0939
347.8710	0.1605
348.1300	0.1647
348.3890	0.1247
348.6480	0.1541
348.9070	0.1342
349.1660	0.0831
349.4240	0.0840
349.6830	0.1144
349.9420	0.1754
350.2010	0.1588
350.4600	0.1559
350.7190	0.1754
350.9780	0.1432
351.2370	0.0915
351.4960	0.0621
351.7550	0.1303
352.0140	0.1607
352.2730	0.0989
352.5320	0.0935
352.7910	0.1692
353.0500	0.1315
353.3090	0.0651
353.5680	0.0635
353.8270	0.1173
354.0860	0.1596
354.3450	0.1792
354.6040	0.1154
354.8630	0.1439
355.1220	0.1614
355.3810	0.1604
355.6400	0.1295
355.8980	0.2560
356.1570	0.2734
356.4160	0.1672
356.6750	0.2029
356.9340	0.1962
357.1930	0.1860
357.4520	0.1848
357.7110	0.1657
357.9700	0.1798
358.2290	0.1534
358.4880	0.1687
358.7470	0.0948
359.0060	0.1267
359.2650	0.1936
359.5240	0.1102
359.7830	0.1008
360.0420	0.1093
360.3010	0.2046
360.5600	0.1444
360.8190	0.1317
361.0780	0.1162
361.3370	0.1442
361.5960	0.1644
361.8550	0.1150
362.1140	0.1743
362.3720	0.2007
362.6310	0.1065
362.8900	0.1203
363.1490	0.1475
363.4080	0.2191
363.6670	0.1765
363.9260	0.1161
364.1850	0.1186
364.4440	0.1289
364.7030	0.0949
364.9620	0.1466
365.2210	0.2459
365.4800	0.2010
365.7390	0.1940
365.9990	0.1943
366.2580	0.1592
366.5180	0.1414
366.7770	0.1040
367.0370	0.1942
367.2960	0.1690
367.5560	0.1689
367.8150	0.1920
368.0750	0.2125
368.3340	0.1837
368.5940	0.1575
368.8530	0.1909
369.1130	0.1561
369.3720	0.1270
369.6320	0.2008
369.8910	0.1835
370.1500	0.1160
370.4100	0.2016
370.6690	0.2342
370.9290	0.1220
371.1880	0.1062
371.4480	0.1618
371.7070	0.2439
371.9670	0.1609
372.2260	0.1272
372.4860	0.2815
372.7450	0.2423
373.0050	0.2277
373.2640	0.1368
373.5240	0.1454
373.7830	0.1397
374.0430	0.2183
374.3020	0.1791
374.5610	0.2285
374.8210	0.1845
375.0800	0.1702
375.3400	0.2439
375.5990	0.2327
375.8590	0.2433
376.1180	0.1789
376.3780	0.1426
376.6370	0.2422
376.8970	0.2393
377.1560	0.1635
377.4160	0.1535
377.6750	0.1445
377.9350	0.2032
378.1940	0.2297
378.4540	0.2272
378.7130	0.2521
378.9720	0.2270
379.2320	0.1887
379.4910	0.1905
379.7510	0.2013
380.0100	0.2371
380.2700	0.1870
380.5290	0.1617
380.7890	0.2302
381.0480	0.2408
381.3080	0.1958
381.5670	0.1780
381.8270	0.2015
382.0860	0.1590
382.3460	0.1661
382.6050	0.1384
382.8650	0.1947
383.1240	0.2566
383.3830	0.2286
383.6430	0.2927
383.9020	0.2626
384.1620	0.2013
384.4210	0.1358
384.6810	0.2694
384.9400	0.3778
385.2000	0.3048
385.4590	0.2474
385.7190	0.1951
385.9780	0.1682
386.2380	0.2181
386.4970	0.1974
386.7570	0.1361
387.0160	0.2430
387.2760	0.2979
387.5350	0.2487
387.7940	0.2647
388.0540	0.2404
388.3130	0.2669
388.5730	0.2005
388.8320	0.1917
389.0920	0.2121
389.3510	0.2153
389.6110	0.2153
389.8700	0.2437
390.1300	0.3141
390.3890	0.3110
390.6490	0.2189
390.9080	0.1383
391.1680	0.2278
391.4270	0.3299
391.6860	0.3271
391.9460	0.2363
392.2050	0.2610
392.4650	0.3081
392.7240	0.2277
392.9840	0.2727
393.2430	0.3216
393.5030	0.2984
393.7620	0.2664
394.0220	0.2097
394.2810	0.1906
394.5410	0.2063
394.8000	0.2386
395.0600	0.2258
395.3190	0.2580
395.5790	0.2191
395.8380	0.1828
396.0970	0.2374
396.3570	0.3454
396.6160	0.2654
396.8760	0.1977
397.1350	0.1807
397.3950	0.1642
397.6540	0.2285
397.9140	0.4036
398.1730	0.3528
398.4330	0.3217
398.6920	0.3293
398.9520	0.3091
399.2110	0.2303
399.4710	0.3422
399.7300	0.2941
399.9900	0.2791
400.2490	0.2434
400.5080	0.2218
400.7680	0.2115
401.0270	0.2152
401.2870	0.2789
401.5460	0.2768
401.8060	0.2764
402.0650	0.3968
402.3250	0.3033
402.5840	0.3673
402.8440	0.3013
403.1030	0.2296
403.3630	0.3999
403.6220	0.2974
403.8820	0.2556
404.1410	0.2694
404.4010	0.3945
404.6600	0.3318
404.9260	0.2516
405.1930	0.2571
405.4590	0.2581
405.7260	0.2092
405.9920	0.1836
406.2590	0.2037
406.5250	0.1963
406.7920	0.2843
407.0580	0.2755
407.3250	0.1959
407.5910	0.2383
407.8580	0.2922
408.1240	0.3101
408.3910	0.2343
408.6570	0.2237
408.9240	0.2455
409.1900	0.2700
409.4570	0.3594
409.7230	0.2922
409.9900	0.3024
410.2560	0.3741
410.5230	0.2507
410.7890	0.2121
411.0560	0.2606
411.3220	0.2385
411.5890	0.1899
411.8550	0.2618
412.1220	0.2805
412.3880	0.2505
412.6550	0.2005
412.9210	0.1839
413.1880	0.2815
413.4540	0.3948
413.7210	0.2502
413.9870	0.2242
414.2540	0.2715
414.5200	0.2561
414.7870	0.2003
415.0530	0.2676
415.3200	0.2990
415.5860	0.2951
415.8530	0.2663
416.1190	0.2433
416.3860	0.2620
416.6520	0.2225
416.9190	0.2434
417.1850	0.2064
417.4520	0.2871
417.7180	0.3657
417.9850	0.2893
418.2510	0.2319
418.5180	0.2723
418.7840	0.2315
419.0510	0.2210
419.3170	0.2415
419.5840	0.2719
419.8500	0.2842
420.1170	0.2480
420.3830	0.1971
420.6500	0.2050
420.9160	0.2662
421.1830	0.2059
421.4490	0.2583
421.7160	0.2963
421.9820	0.3072
422.2490	0.2628
422.5150	0.3190
422.7820	0.3444
423.0480	0.3284
423.3150	0.3558
423.5810	0.3073
423.8480	0.3934
424.1140	0.4108
424.3810	0.2729
424.6470	0.2961
424.9140	0.3318
425.1800	0.2942
425.4470	0.2880
425.7130	0.3279
425.9800	0.4216
426.2460	0.4781
426.5130	0.3295
426.7790	0.1976
427.0460	0.2259
427.3120	0.3086
427.5790	0.2492
427.8450	0.2496
428.1120	0.3004
428.3780	0.3400
428.6450	0.5159
428.9110	0.3224
429.1780	0.2588
429.4440	0.4095
429.7110	0.3342
429.9770	0.2001
430.2440	0.2728
430.5100	0.3001
430.7770	0.3025
431.0430	0.3228
431.3100	0.3206
431.5760	0.2729
431.8430	0.3513
432.1090	0.3154
432.3760	0.2601
432.6420	0.3254
432.9090	0.2914
433.1750	0.2352
433.4420	0.2389
433.7080	0.3867
433.9750	0.4544
434.2410	0.3609
434.5080	0.3434
434.7740	0.3000
435.0410	0.3045
435.3070	0.2470
435.5740	0.2908
435.8400	0.3394
436.1100	0.4052
436.3790	0.3559
436.6490	0.3417
436.9180	0.3592
437.1880	0.3881
437.4570	0.3359
437.7270	0.2667
437.9960	0.2946
438.2660	0.2481
438.5350	0.2781
438.8050	0.3443
439.0740	0.3391
439.3440	0.3134
439.6130	0.3264
439.8830	0.2529
440.1520	0.2822
440.4220	0.3132
440.6910	0.3104
440.9610	0.2939
441.2300	0.2640
441.5000	0.2861
441.7690	0.2592
442.0390	0.2283
442.3080	0.2576
442.5780	0.3288
442.8470	0.3051
443.1170	0.3656
443.3860	0.3288
443.6560	0.2781
443.9250	0.2322
444.1950	0.3669
444.4640	0.3706
444.7340	0.2658
445.0030	0.2280
445.2730	0.2835
445.5420	0.3455
445.8120	0.3120
446.0810	0.3334
446.3510	0.4015
446.6200	0.3507
446.8900	0.2924
447.1590	0.2527
447.4290	0.3099
447.6980	0.4010
447.9680	0.3019
448.2380	0.3058
448.5070	0.3337
448.7770	0.3086
449.0460	0.2750
449.3160	0.3214
449.5850	0.3485
449.8550	0.3440
450.1240	0.3341
450.3940	0.3014
450.6630	0.3034
450.9330	0.3095
451.2020	0.2630
451.4720	0.2906
451.7410	0.3576
452.0110	0.3091
452.2800	0.2276
452.5500	0.2538
452.8190	0.2613
453.0890	0.3301
453.3580	0.3055
453.6280	0.2689
453.8970	0.2878
454.1670	0.3249
454.4360	0.3020
454.7060	0.2681
454.9750	0.2669
455.2450	0.2962
455.5140	0.3166
455.7840	0.2308
456.0530	0.2792
456.3230	0.2672
456.5920	0.2379
456.8620	0.3448
457.1310	0.4027
457.4010	0.3409
457.6700	0.2394
457.9400	0.2939
458.2090	0.2703
458.4790	0.2642
458.7480	0.2618
459.0180	0.1940
459.2870	0.2576
459.5570	0.2922
459.8260	0.4461
460.0960	0.5439
460.3660	0.4530
460.6350	0.3425
460.9050	0.3497
461.1740	0.2506
461.4440	0.2570
461.7130	0.2842
461.9830	0.2312
462.2520	0.1908
462.5220	0.2606
462.7910	0.2618
463.0610	0.2253
463.3300	0.3378
463.6000	0.3510
463.8690	0.3075
464.1390	0.2166
464.4080	0.1858
464.6780	0.2354
464.9470	0.2713
465.2170	0.2870
465.4860	0.2837
465.7560	0.2674
466.0250	0.3181
466.2950	0.2659
466.5640	0.2829
466.8340	0.3266
467.1030	0.4121
467.3730	0.2975
467.6420	0.2448
467.9120	0.2465
468.1810	0.2659
468.4510	0.2212
468.7200	0.2352
468.9900	0.2682
469.2590	0.3774
469.5290	0.3745
469.7980	0.2425
470.0680	0.2330
470.3370	0.2692
470.6070	0.2178
470.8760	0.2299
471.1460	0.3202
471.4150	0.3536
471.6850	0.2865
471.9540	0.2664
472.2240	0.2649
472.4930	0.2586
472.7630	0.2680
473.0330	0.3423
473.3020	0.4370
473.5720	0.3055
473.8410	0.1905
474.1110	0.2281
474.3800	0.2391
474.6500	0.2526
474.9190	0.2741
475.1890	0.2167
475.4580	0.2971
475.7280	0.3063
475.9970	0.3609
476.2670	0.2993
476.5360	0.2639
476.8060	0.2935
477.0750	0.2270
477.3450	0.2765
477.6140	0.2735
477.8840	0.3711
478.1530	0.2885
478.4230	0.2169
478.6920	0.3230
478.9620	0.2931
479.2310	0.2964
479.5010	0.2658
479.7700	0.2996
480.0400	0.3581
480.3090	0.2466
480.5790	0.1809
480.8480	0.1993
481.1180	0.3365
481.3870	0.2829
481.6570	0.2828
481.9260	0.2589
482.1960	0.2389
482.4650	0.2056
482.7350	0.2362
483.0040	0.2783
483.2740	0.2570
483.5430	0.2470
483.8130	0.1802
484.0820	0.2227
484.3520	0.2719
484.6210	0.2121
484.8910	0.1944
485.1610	0.2312
485.4300	0.3607
485.7000	0.2498
485.9690	0.2101
486.2390	0.2383
486.5080	0.3005
486.7780	0.2710
487.0470	0.2249
487.3170	0.2075
487.5860	0.2392
487.8560	0.2185
488.1250	0.2392
488.3950	0.1948
488.6640	0.2072
488.9340	0.2637
489.2030	0.2136
489.4730	0.1948
489.7420	0.2241
490.0120	0.1885
490.2810	0.1740
490.5510	0.2203
490.8200	0.2707
491.0900	0.3670
491.3590	0.2970
491.6290	0.2270
491.8980	0.2790
492.1680	0.2718
492.4370	0.1850
492.7070	0.1905
492.9760	0.3258
493.2460	0.2291
493.5150	0.2105
493.7850	0.2841
494.0540	0.3449
494.3240	0.2917
494.5930	0.1788
494.8630	0.1701
495.1320	0.2355
495.4020	0.3349
495.6710	0.2516
495.9410	0.2072
496.2100	0.2765
496.4800	0.2578
496.7490	0.2838
497.0190	0.2562
497.2890	0.2842
497.5580	0.2270
497.8280	0.2378
498.0970	0.2466
498.3670	0.2910
498.6360	0.2781
498.9060	0.2059
499.1750	0.1920
499.4450	0.2222
499.7140	0.1862
499.9840	0.1709
500.2530	0.1801
500.5230	0.2280
500.7920	0.2190
501.0620	0.2072
501.3310	0.2919
501.6010	0.3030
501.8700	0.2714
502.1400	0.2382
502.4090	0.2023
502.6790	0.2014
502.9480	0.2235
503.2180	0.2311
503.4870	0.3507
503.7570	0.2470
504.0260	0.2110
504.2960	0.2265
504.5650	0.2739
504.8350	0.2468
505.1040	0.2184
505.3740	0.2804
505.6430	0.2305
505.9130	0.3530
506.1820	0.3293
506.4520	0.2409
506.7210	0.3808
506.9910	0.3605
507.2600	0.2124
507.5300	0.2165
507.7990	0.2042
508.0690	0.1887
508.3380	0.2595
508.6080	0.2335
508.8770	0.2501
509.1470	0.2854
509.4160	0.2451
509.6860	0.1792
509.9560	0.2805
510.2250	0.3211
510.4950	0.2134
510.7640	0.1807
511.0340	0.2281
511.3030	0.2560
511.5730	0.2137
511.8420	0.1608
512.1120	0.2359
512.3810	0.2546
512.6510	0.1929
512.9200	0.1642
513.1900	0.2295
513.4590	0.2005
513.7290	0.1914
513.9980	0.2518
514.2680	0.2786
514.5370	0.5121
514.8070	0.4264
515.0760	0.2661
515.3460	0.2260
515.6150	0.1791
515.8850	0.2485
516.1540	0.2809
516.4240	0.2408
516.6930	0.2368
516.9630	0.2027
517.2320	0.2109
517.5020	0.2040
517.7710	0.1694
518.0410	0.2023
518.3100	0.2269
518.5800	0.2246
518.8490	0.3366
519.1190	0.2576
519.3880	0.2024
519.6580	0.2666
519.9270	0.2143
520.1970	0.1505
520.4660	0.1517
520.7360	0.1733
521.0050	0.2242
521.2750	0.1947
521.5440	0.2344
521.8140	0.1813
522.0840	0.2126
522.3530	0.2346
522.6230	0.1532
522.8920	0.2012
523.1620	0.2367
523.4310	0.2502
523.7010	0.2205
523.9700	0.1914
524.2400	0.1566
524.5090	0.1760
524.7790	0.1429
525.0480	0.1188
525.3180	0.2113
525.5870	0.1598
525.8570	0.1517
526.1260	0.2580
526.3960	0.2394
526.6650	0.1781
526.9350	0.1654
527.2040	0.1663
527.4740	0.1965
527.7430	0.2344
528.0130	0.1779
528.2820	0.1544
528.5520	0.1791
528.8210	0.2022
529.0910	0.2097
529.3600	0.1654
529.6300	0.1750
529.8990	0.1735
530.1690	0.1819
530.4380	0.2409
530.7080	0.2721
530.9770	0.2234
531.2470	0.1941
531.5160	0.2768
531.7860	0.2419
532.0550	0.1575
532.3250	0.1390
532.5940	0.1988
532.8640	0.2251
533.1330	0.1909
533.4030	0.1364
533.6720	0.1604
533.9420	0.2384
534.2120	0.1580
534.4810	0.1117
534.7510	0.1662
535.0200	0.3499
535.2900	0.2230
535.5590	0.1349
535.8290	0.1892
536.0980	0.2696
536.3680	0.2456
536.6370	0.1923
536.9070	0.2494
537.1760	0.2476
537.4460	0.2240
537.7150	0.1888
537.9850	0.1836
538.2540	0.2060
538.5240	0.2120
538.7930	0.2359
539.0630	0.1885
539.3320	0.2261
539.6020	0.2288
539.8710	0.1944
540.1410	0.2148
540.4100	0.2508
540.6800	0.1888
540.9490	0.1871
541.2190	0.2133
541.4880	0.2943
541.7580	0.2954
542.0270	0.2053
542.2970	0.1788
542.5660	0.2047
542.8360	0.1422
543.1050	0.1349
543.3750	0.1721
543.6440	0.1732
543.9140	0.1534
544.1830	0.1425
544.4530	0.2066
544.7220	0.1856
544.9920	0.1217
545.2610	0.1595
545.5310	0.1950
545.8000	0.1872
546.0700	0.1694
546.3460	0.1452
546.6220	0.1578
546.8970	0.1539
547.1730	0.2010
547.4490	0.1564
547.7250	0.2145
548.0010	0.2139
548.2760	0.1979
548.5520	0.1781
548.8280	0.1728
549.1040	0.1935
549.3800	0.1804
549.6550	0.2103
549.9310	0.2428
550.2070	0.2876
550.4830	0.1894
550.7590	0.1430
551.0340	0.1420
551.3100	0.2016
551.5860	0.1673
551.8620	0.2249
552.1380	0.1904
552.4130	0.1490
552.6890	0.1163
552.9650	0.1211
553.2410	0.1325
553.5170	0.1723
553.7930	0.1468
554.0680	0.1527
554.3440	0.1596
554.6200	0.2271
554.8960	0.1682
555.1720	0.1164
555.4470	0.1664
555.7230	0.1637
555.9990	0.1373
556.2750	0.1409
556.5510	0.2070
556.8260	0.1779
557.1020	0.1379
557.3780	0.1932
557.6540	0.1980
557.9300	0.1621
558.2050	0.1512
558.4810	0.1269
558.7570	0.1515
559.0330	0.1455
559.3090	0.2188
559.5840	0.2191
559.8600	0.1998
560.1360	0.1706
560.4120	0.1559
560.6880	0.1401
560.9630	0.1522
561.2390	0.3362
561.5150	0.2089
561.7910	0.1233
562.0670	0.1530
562.3420	0.1867
562.6180	0.1511
562.8940	0.0867
563.1700	0.1989
563.4460	0.1843
563.7210	0.0963
563.9970	0.1045
564.2730	0.1583
564.5490	0.2031
564.8250	0.1977
565.1000	0.2952
565.3760	0.2290
565.6520	0.1786
565.9280	0.2164
566.2040	0.1407
566.4790	0.1641
566.7550	0.1689
567.0310	0.1509
567.3070	0.1179
567.5830	0.1458
567.8580	0.1573
568.1340	0.1661
568.4100	0.1164
568.6860	0.1701
568.9620	0.1615
569.2370	0.2346
569.5130	0.1586
569.7890	0.1703
570.0650	0.1842
570.3410	0.1516
570.6170	0.1306
570.8920	0.1578
571.1680	0.1613
571.4440	0.1520
571.7200	0.1451
571.9960	0.2016
572.2710	0.2949
572.5470	0.1893
572.8230	0.1054
573.0990	0.1652
573.3750	0.2953
573.6500	0.2026
573.9260	0.1384
574.2020	0.1433
574.4780	0.1567
574.7540	0.1418
575.0290	0.1348
575.3050	0.2092
575.5810	0.1671
575.8570	0.1494
576.1330	0.1232
576.4080	0.1488
576.6840	0.1962
576.9600	0.1798
577.2390	0.1317
577.5170	0.1198
577.7960	0.1657
578.0750	0.2196
578.3540	0.1401
578.6320	0.1180
578.9110	0.2051
579.1900	0.2977
579.4690	0.2151
579.7470	0.1738
580.0260	0.1734
580.3050	0.1297
580.5840	0.1835
580.8620	0.1597
581.1410	0.1748
581.4200	0.1603
581.6990	0.1380
581.9770	0.1855
582.2560	0.1978
582.5350	0.2255
582.8140	0.1746
583.0920	0.1816
583.3710	0.1796
583.6500	0.1691
583.9290	0.1545
584.2070	0.1433
584.4860	0.1935
584.7650	0.2046
585.0430	0.1219
585.3220	0.2033
585.6010	0.2202
585.8800	0.2844
586.1580	0.1866
586.4370	0.1218
586.7160	0.1556
586.9950	0.1779
587.2730	0.1428
587.5520	0.1471
587.8310	0.1872
588.1100	0.2032
588.3880	0.1268
588.6670	0.1011
588.9460	0.1062
589.2250	0.0776
589.5030	0.0789
589.7820	0.0988
590.0610	0.1184
590.3400	0.1979
590.6180	0.2759
590.8970	0.3196
591.1760	0.2258
591.4550	0.1453
591.7330	0.1386
592.0120	0.1819
592.2910	0.2451
592.5700	0.1725
592.8480	0.2092
593.1270	0.1541
593.4060	0.1491
593.6840	0.1100
593.9630	0.1233
594.2420	0.1593
594.5210	0.1420
594.7990	0.1536
595.0780	0.1530
595.3570	0.1418
595.6360	0.1369
595.9140	0.1460
596.1930	0.1233
596.4720	0.1332
596.7510	0.1640
597.0290	0.1916
597.3080	0.1810
597.5870	0.1287
597.8660	0.1385
598.1440	0.1288
598.4230	0.1062
598.7020	0.1450
598.9810	0.1717
599.2590	0.2407
599.5380	0.1891
599.8170	0.1256
