199.8780	0.0209
200.1320	-0.0029
200.3850	0.0122
200.6390	0.0076
200.8920	0.0112
201.1460	0.0192
201.4000	0.0203
201.6530	0.0256
201.9070	0.0166
202.1610	0.0210
202.4140	0.0277
202.6680	0.0114
202.9220	0.0203
203.1750	0.0224
203.4290	0.0247
203.6830	0.0053
203.9360	-0.0109
204.1900	0.0097
204.4430	-0.0090
204.6970	-0.0199
204.9510	0.0121
205.2040	0.0231
205.4580	0.0040
205.7120	-0.0122
205.9650	0.0120
206.2190	0.0047
206.4730	0.0013
206.7260	0.0216
206.9800	0.0071
207.2330	0.0168
207.4870	0.0278
207.7410	0.0287
207.9940	0.0210
208.2480	0.0105
208.5020	0.0203
208.7550	0.0266
209.0090	-0.0057
209.2630	-0.0213
209.5160	0.0095
209.7700	0.0294
210.0240	0.0287
210.2770	0.0228
210.5310	0.0251
210.7840	0.0236
211.0380	0.0230
211.2920	0.0229
211.5450	0.0258
211.7990	-0.0003
212.0530	-0.0195
212.3060	-0.0121
212.5600	0.0141
212.8140	0.0269
213.0670	0.0269
213.3210	0.0196
213.5750	0.0186
213.8280	0.0194
214.0820	-0.0070
214.3350	0.0108
214.5890	0.0222
214.8430	0.0242
215.0960	-0.0072
215.3500	0.0058
215.6040	0.0042
215.8570	0.0140
216.1110	0.0245
216.3650	0.0242
216.6180	0.0260
216.8720	0.0290
217.1260	0.0254
217.3790	0.0067
217.6330	0.0136
217.8860	-0.0241
218.1400	-0.0006
218.3940	0.0260
218.6470	0.0281
218.9010	0.0255
219.1550	0.0184
219.4080	0.0185
219.6620	0.0227
219.9160	0.0167
220.1690	0.0116
220.4230	0.0162
220.6770	0.0089
220.9300	0.0121
221.1840	0.0205
221.4370	0.0200
221.6910	0.0240
221.9450	0.0267
222.1980	0.0249
222.4520	0.0222
222.7060	0.0014
222.9590	0.0141
223.2130	0.0177
223.4670	0.0239
223.7200	0.0071
223.9740	0.0152
224.2280	0.0245
224.4810	0.0197
224.7350	0.0241
224.9880	0.0275
225.2420	0.0162
225.4960	0.0106
225.7490	-0.0112
226.0030	0.0072
226.2570	0.0234
226.5100	0.0238
226.7640	-0.0050
227.0180	0.0105
227.2710	0.0238
227.5250	0.0255
227.7790	0.0273
228.0320	0.0225
228.2860	-0.0104
228.5390	0.0046
228.7930	0.0246
229.0470	0.0260
229.3000	-0.0086
229.5540	-0.0233
229.8080	0.0100
230.0610	0.0185
230.3150	0.0142
230.5690	0.0173
230.8220	0.0234
231.0760	0.0243
231.3300	0.0256
231.5830	0.0189
231.8370	0.0170
232.0900	0.0222
232.3440	0.0224
232.5980	0.0246
232.8510	0.0108
233.1050	0.0144
233.3590	-0.0077
233.6120	0.0064
233.8660	0.0084
234.1200	0.0157
234.3730	-0.0012
234.6270	0.0086
234.8800	0.0187
235.1340	0.0219
235.3880	-0.0028
235.6410	0.0081
235.8950	0.0231
236.1490	0.0248
236.4020	0.0256
236.6560	0.0163
236.9100	0.0138
237.1630	0.0208
237.4170	0.0207
237.6710	0.0183
237.9240	0.0194
238.1780	0.0252
238.4310	0.0251
238.6850	0.0192
238.9390	0.0149
239.1920	0.0135
239.4460	-0.0025
239.7000	0.0104
239.9530	0.0181
240.2070	0.0208
240.4610	0.0248
240.7140	0.0253
240.9680	0.0261
241.2220	0.0207
241.4750	0.0174
241.7290	0.0195
241.9820	0.0231
242.2360	0.0216
242.4900	0.0192
242.7430	0.0234
242.9970	-0.0073
243.2510	0.0006
243.5040	0.0221
243.7580	0.0204
244.0120	0.0203
244.2650	-0.0119
244.5190	0.0060
244.7730	0.0224
245.0260	0.0244
245.2800	0.0261
245.5330	0.0159
245.7870	0.0168
246.0410	0.0173
246.2940	0.0125
246.5480	0.0037
246.8020	0.0174
247.0550	0.0235
247.3090	0.0063
247.5630	0.0137
247.8160	0.0241
248.0700	0.0165
248.3240	-0.0110
248.5770	0.0002
248.8310	0.0155
249.0840	0.0194
249.3380	0.0209
249.5920	0.0052
249.8450	0.0071
250.0990	0.0001
250.3530	0.0078
250.6060	0.0191
250.8600	0.0179
251.1140	0.0175
251.3670	0.0090
251.6210	0.0172
251.8750	0.0245
252.1280	-0.0052
252.3820	0.0098
252.6350	0.0284
252.8890	0.0242
253.1430	0.0199
253.3960	0.0212
253.6500	0.0221
253.9040	0.0201
254.1590	0.0175
254.4130	0.0222
254.6670	0.0119
254.9220	-0.0065
255.1760	-0.0222
255.4310	0.0014
255.6850	0.0241
255.9390	0.0278
256.1940	0.0211
256.4480	0.0180
256.7020	0.0191
256.9570	0.0218
257.2110	0.0244
257.4650	0.0243
257.7200	-0.0115
257.9740	0.0037
258.2280	0.0069
258.4830	0.0082
258.7370	0.0198
258.9920	0.0240
259.2460	0.0234
259.5000	0.0222
259.7550	0.0165
260.0090	0.0180
260.2630	0.0203
260.5180	0.0233
260.7720	0.0229
261.0260	0.0200
261.2810	0.0213
261.5350	0.0197
261.7890	0.0184
262.0440	0.0170
262.2980	0.0041
262.5530	0.0114
262.8070	0.0168
263.0610	0.0170
263.3160	0.0168
263.5700	0.0222
263.8240	0.0176
264.0790	0.0186
264.3330	0.0184
264.5870	0.0154
264.8420	-0.0098
265.0960	0.0075
265.3510	-0.0061
265.6050	0.0051
265.8590	0.0206
266.1140	0.0226
266.3680	0.0207
266.6220	0.0234
266.8770	0.0251
267.1310	0.0235
267.3850	0.0098
267.6400	0.0092
267.8940	0.0169
268.1480	0.0171
268.4030	0.0223
268.6570	0.0210
268.9120	0.0154
269.1660	0.0147
269.4200	0.0224
269.6750	0.0251
269.9290	0.0234
270.1830	0.0217
270.4380	0.0215
270.6920	0.0225
270.9460	0.0221
271.2010	-0.0109
271.4550	-0.0025
271.7090	0.0151
271.9640	0.0180
272.2180	0.0148
272.4730	0.0136
272.7270	0.0182
272.9810	0.0220
273.2360	0.0186
273.4900	0.0214
273.7440	0.0251
273.9990	0.0240
274.2530	0.0175
274.5070	0.0172
274.7620	0.0164
275.0160	0.0169
275.2710	0.0215
275.5250	0.0228
275.7790	0.0182
276.0340	0.0147
276.2880	0.0156
276.5420	0.0194
276.7970	0.0230
277.0510	0.0237
277.3050	-0.0048
277.5600	0.0049
277.8140	0.0186
278.0680	0.0188
278.3230	0.0164
278.5770	0.0179
278.8320	0.0125
279.0860	0.0154
279.3400	-0.0040
279.5950	0.0096
279.8490	0.0251
280.1030	0.0201
280.3580	0.0197
280.6120	0.0223
280.8660	0.0215
281.1210	0.0205
281.3750	0.0150
281.6290	0.0155
281.8840	0.0216
282.1380	0.0201
282.3930	0.0216
282.6470	0.0228
282.9010	0.0225
283.1560	0.0167
283.4100	0.0122
283.6640	0.0158
283.9190	0.0200
284.1730	0.0149
284.4270	0.0162
284.6820	0.0198
284.9360	0.0232
285.1910	0.0230
285.4450	0.0238
285.6990	0.0219
285.9540	0.0169
286.2080	0.0200
286.4620	0.0207
286.7170	0.0157
286.9710	0.0162
287.2250	0.0071
287.4800	0.0078
287.7340	0.0149
287.9880	0.0217
288.2430	0.0128
288.4970	0.0102
288.7520	0.0159
289.0060	0.0117
289.2600	0.0102
289.5150	0.0174
289.7690	0.0192
290.0230	0.0218
290.2780	0.0218
290.5320	0.0234
290.7860	0.0224
291.0410	0.0179
291.2950	0.0151
291.5490	0.0164
291.8040	0.0189
292.0580	0.0208
292.3130	0.0163
292.5670	0.0182
292.8210	0.0191
293.0760	0.0226
293.3300	0.0238
293.5840	-0.0025
293.8390	0.0020
294.0930	0.0137
294.3470	0.0158
294.6020	0.0215
294.8560	0.0222
295.1110	0.0132
295.3650	0.0146
295.6190	0.0214
295.8740	0.0238
296.1280	0.0217
296.3820	0.0153
296.6370	0.0173
296.8910	0.0165
297.1450	0.0215
297.4000	-0.0026
297.6540	0.0091
297.9080	0.0246
298.1630	0.0198
298.4170	0.0151
298.6720	0.0122
298.9260	0.0180
299.1800	0.0210
299.4350	0.0201
299.6890	0.0163
299.9430	0.0176
300.1980	0.0252
300.4520	0.0234
300.7060	0.0243
300.9610	0.0131
301.2150	0.0130
301.4690	0.0176
301.7240	0.0195
301.9780	0.0238
302.2330	0.0254
302.4870	0.0226
302.7410	0.0224
302.9960	0.0228
303.2500	0.0276
303.5040	0.0184
303.7590	0.0210
304.0130	0.0195
304.2670	0.0105
304.5220	0.0178
304.7760	0.0267
305.0310	0.0253
305.2850	0.0219
305.5390	0.0237
305.7940	0.0192
306.0480	0.0180
306.3020	0.0194
306.5570	0.0210
306.8110	0.0299
307.0650	0.0361
307.3200	0.0382
307.5740	0.0285
307.8280	0.0239
308.0830	0.0293
308.3370	0.0255
308.5920	0.0271
308.8460	0.0352
309.1000	0.0331
309.3550	0.0202
309.6090	0.0319
309.8630	0.0354
310.1180	0.0264
310.3720	0.0367
310.6260	0.0353
310.8810	0.0281
311.1350	0.0341
311.3890	0.0372
311.6440	0.0316
311.8980	0.0306
312.1530	0.0423
312.4070	0.0514
312.6610	0.0509
312.9160	0.0403
313.1700	0.0277
313.4290	0.0394
313.6880	0.0480
313.9470	0.0440
314.2060	0.0321
314.4650	0.0386
314.7240	0.0390
314.9830	0.0451
315.2420	0.0385
315.5010	0.0377
315.7600	0.0390
316.0190	0.0447
316.2780	0.0429
316.5360	0.0348
316.7950	0.0369
317.0540	0.0452
317.3130	0.0177
317.5720	0.0228
317.8310	0.0445
318.0900	0.0371
318.3490	0.0355
318.6080	0.0321
318.8670	0.0305
319.1260	0.0324
319.3850	0.0339
319.6440	0.0294
319.9030	0.0352
320.1620	0.0371
320.4210	0.0307
320.6800	0.0284
320.9390	0.0343
321.1980	0.0316
321.4570	0.0389
321.7160	0.0384
321.9750	0.0441
322.2340	0.0497
322.4930	0.0456
322.7520	0.0380
323.0100	0.0404
323.2690	0.0413
323.5280	0.0421
323.7870	0.0387
324.0460	0.0302
324.3050	0.0366
324.5640	0.0332
324.8230	0.0364
325.0820	0.0348
325.3410	0.0401
325.6000	0.0356
325.8590	0.0246
326.1180	0.0326
326.3770	0.0387
326.6360	0.0402
326.8950	0.0157
327.1540	0.0271
327.4130	0.0310
327.6720	0.0359
327.9310	0.0283
328.1900	0.0204
328.4490	0.0257
328.7080	0.0313
328.9670	0.0303
329.2260	0.0273
329.4850	0.0271
329.7430	0.0142
330.0020	0.0187
330.2610	0.0287
330.5200	0.0394
330.7790	0.0414
331.0380	0.0386
331.2970	0.0289
331.5560	0.0225
331.8150	0.0236
332.0740	0.0246
332.3330	0.0287
332.5920	0.0337
332.8510	0.0300
333.1100	0.0281
333.3690	0.0245
333.6280	0.0240
333.8870	0.0169
334.1460	0.0268
334.4050	0.0357
334.6640	0.0382
334.9230	0.0331
335.1820	0.0331
335.4410	0.0362
335.7000	0.0424
335.9590	0.0406
336.2170	0.0272
336.4760	0.0296
336.7350	0.0386
336.9940	0.0390
337.2530	0.0334
337.5120	0.0280
337.7710	0.0355
338.0300	0.0430
338.2890	0.0416
338.5480	0.0303
338.8070	0.0341
339.0660	0.0439
339.3250	0.0313
339.5840	0.0314
339.8430	0.0374
340.1020	0.0395
340.3610	0.0352
340.6200	0.0357
340.8790	0.0432
341.1380	0.0453
341.3970	0.0350
341.6560	0.0287
341.9150	0.0310
342.1740	0.0377
342.4330	0.0346
342.6910	0.0332
342.9500	0.0383
343.2090	0.0322
343.4680	0.0393
343.7270	0.0353
343.9860	0.0327
344.2450	0.0303
344.5040	0.0402
344.7630	0.0465
345.0220	0.0342
345.2810	0.0287
345.5400	0.0266
345.7990	0.0302
346.0580	0.0380
346.3170	0.0382
346.5760	0.0438
346.8350	0.0386
347.0940	0.0296
347.3530	0.0322
347.6120	0.0298
347.8710	0.0380
348.1300	0.0422
348.3890	0.0403
348.6480	0.0451
348.9070	0.0386
349.1660	0.0296
349.4240	0.0319
349.6830	0.0360
349.9420	0.0449
350.2010	0.0450
350.4600	0.0475
350.7190	0.0462
350.9780	0.0362
351.2370	0.0312
351.4960	0.0286
351.7550	0.0377
352.0140	0.0437
352.2730	0.0351
352.5320	0.0378
352.7910	0.0466
353.0500	0.0347
353.3090	0.0254
353.5680	0.0293
353.8270	0.0347
354.0860	0.0399
354.3450	0.0478
354.6040	0.0384
354.8630	0.0399
355.1220	0.0406
355.3810	0.0449
355.6400	0.0417
355.8980	0.0217
356.1570	0.0349
356.4160	0.0443
356.6750	0.0451
356.9340	0.0476
357.1930	0.0504
357.4520	0.0524
357.7110	0.0511
357.9700	0.0472
358.2290	0.0367
358.4880	0.0443
358.7470	0.0350
359.0060	0.0385
359.2650	0.0496
359.5240	0.0343
359.7830	0.0357
360.0420	0.0358
360.3010	0.0465
360.5600	0.0413
360.8190	0.0433
361.0780	0.0339
361.3370	0.0374
361.5960	0.0476
361.8550	0.0417
362.1140	0.0410
362.3720	0.0475
362.6310	0.0362
362.8900	0.0449
363.1490	0.0453
363.4080	0.0512
363.6670	0.0531
363.9260	0.0447
364.1850	0.0371
364.4440	0.0387
364.7030	0.0357
364.9620	0.0473
365.2210	0.0530
365.4800	0.0430
365.7390	0.0396
365.9990	0.0488
366.2580	0.0426
366.5180	0.0386
366.7770	0.0374
367.0370	0.0381
367.2960	0.0331
367.5560	0.0445
367.8150	0.0554
368.0750	0.0594
368.3340	0.0492
368.5940	0.0448
368.8530	0.0506
369.1130	0.0465
369.3720	0.0370
369.6320	0.0521
369.8910	0.0537
370.1500	0.0391
370.4100	0.0477
370.6690	0.0554
370.9290	0.0378
371.1880	0.0383
371.4480	0.0465
371.7070	0.0539
371.9670	0.0434
372.2260	0.0430
372.4860	0.0369
372.7450	0.0399
373.0050	0.0568
373.2640	0.0452
373.5240	0.0440
373.7830	0.0371
374.0430	0.0414
374.3020	0.0423
374.5610	0.0540
374.8210	0.0447
375.0800	0.0481
375.3400	0.0610
375.5990	0.0560
375.8590	0.0582
376.1180	0.0503
376.3780	0.0455
376.6370	0.0571
376.8970	0.0580
377.1560	0.0476
377.4160	0.0504
377.6750	0.0435
377.9350	0.0510
378.1940	0.0628
378.4540	0.0637
378.7130	0.0666
378.9720	0.0560
379.2320	0.0576
379.4910	0.0592
379.7510	0.0519
380.0100	0.0552
380.2700	0.0522
380.5290	0.0492
380.7890	0.0608
381.0480	0.0611
381.3080	0.0572
381.5670	0.0555
381.8270	0.0539
382.0860	0.0411
382.3460	0.0477
382.6050	0.0459
382.8650	0.0487
383.1240	0.0622
383.3830	0.0620
383.6430	0.0472
383.9020	0.0486
384.1620	0.0490
384.4210	0.0405
384.6810	0.0357
384.9400	0.0352
385.2000	0.0509
385.4590	0.0632
385.7190	0.0583
385.9780	0.0454
386.2380	0.0535
386.4970	0.0537
386.7570	0.0446
387.0160	0.0648
387.2760	0.0737
387.5350	0.0652
387.7940	0.0675
388.0540	0.0576
388.3130	0.0607
388.5730	0.0520
388.8320	0.0571
389.0920	0.0560
389.3510	0.0536
389.6110	0.0603
389.8700	0.0669
390.1300	0.0712
390.3890	0.0703
390.6490	0.0573
390.9080	0.0447
391.1680	0.0606
391.4270	0.0706
391.6860	0.0682
391.9460	0.0628
392.2050	0.0667
392.4650	0.0706
392.7240	0.0602
392.9840	0.0605
393.2430	0.0722
393.5030	0.0740
393.7620	0.0704
394.0220	0.0629
394.2810	0.0544
394.5410	0.0522
394.8000	0.0626
395.0600	0.0631
395.3190	0.0658
395.5790	0.0555
395.8380	0.0524
396.0970	0.0669
396.3570	0.0723
396.6160	0.0562
396.8760	0.0532
397.1350	0.0533
397.3950	0.0469
397.6540	0.0574
397.9140	0.0401
398.1730	0.0583
398.4330	0.0769
398.6920	0.0775
398.9520	0.0783
399.2110	0.0659
399.4710	0.0740
399.7300	0.0638
399.9900	0.0716
400.2490	0.0696
400.5080	0.0590
400.7680	0.0569
401.0270	0.0608
401.2870	0.0672
401.5460	0.0648
401.8060	0.0678
402.0650	0.0632
402.3250	0.0640
402.5840	0.0554
402.8440	0.0545
403.1030	0.0645
403.3630	0.0452
403.6220	0.0422
403.8820	0.0634
404.1410	0.0712
404.4010	0.0475
404.6600	0.0492
404.9260	0.0598
405.1930	0.0696
405.4590	0.0715
405.7260	0.0560
405.9920	0.0476
406.2590	0.0586
406.5250	0.0592
406.7920	0.0704
407.0580	0.0661
407.3250	0.0531
407.5910	0.0677
407.8580	0.0788
408.1240	0.0778
408.3910	0.0642
408.6570	0.0649
408.9240	0.0631
409.1900	0.0659
409.4570	0.0572
409.7230	0.0580
409.9900	0.0754
410.2560	0.0733
410.5230	0.0570
410.7890	0.0612
411.0560	0.0688
411.3220	0.0596
411.5890	0.0532
411.8550	0.0711
412.1220	0.0701
412.3880	0.0603
412.6550	0.0536
412.9210	0.0543
413.1880	0.0715
413.4540	0.0723
413.7210	0.0547
413.9870	0.0667
414.2540	0.0694
414.5200	0.0607
414.7870	0.0534
415.0530	0.0721
415.3200	0.0717
415.5860	0.0722
415.8530	0.0726
416.1190	0.0682
416.3860	0.0659
416.6520	0.0561
416.9190	0.0636
417.1850	0.0595
417.4520	0.0749
417.7180	0.0826
417.9850	0.0728
418.2510	0.0676
418.5180	0.0694
418.7840	0.0547
419.0510	0.0600
419.3170	0.0685
419.5840	0.0752
419.8500	0.0704
420.1170	0.0643
420.3830	0.0565
420.6500	0.0522
420.9160	0.0629
421.1830	0.0557
421.4490	0.0639
421.7160	0.0681
421.9820	0.0730
422.2490	0.0692
422.5150	0.0721
422.7820	0.0784
423.0480	0.0794
423.3150	0.0760
423.5810	0.0755
423.8480	0.0610
424.1140	0.0691
424.3810	0.0650
424.6470	0.0800
424.9140	0.0747
425.1800	0.0663
425.4470	0.0752
425.7130	0.0789
425.9800	0.0645
426.2460	0.0477
426.5130	0.0562
426.7790	0.0541
427.0460	0.0575
427.3120	0.0740
427.5790	0.0656
427.8450	0.0682
428.1120	0.0755
428.3780	0.0790
428.6450	0.0507
428.9110	0.0451
429.1780	0.0675
429.4440	0.0668
429.7110	0.0693
429.9770	0.0564
430.2440	0.0656
430.5100	0.0673
430.7770	0.0714
431.0430	0.0728
431.3100	0.0775
431.5760	0.0657
431.8430	0.0569
432.1090	0.0637
432.3760	0.0652
432.6420	0.0694
432.9090	0.0675
433.1750	0.0619
433.4420	0.0595
433.7080	0.0521
433.9750	0.0418
434.2410	0.0650
434.5080	0.0833
434.7740	0.0692
435.0410	0.0753
435.3070	0.0641
435.5740	0.0695
435.8400	0.0767
436.1100	0.0583
436.3790	0.0690
436.6490	0.0822
436.9180	0.0804
437.1880	0.0653
437.4570	0.0689
437.7270	0.0638
437.9960	0.0683
438.2660	0.0593
438.5350	0.0707
438.8050	0.0826
439.0740	0.0783
439.3440	0.0777
439.6130	0.0771
439.8830	0.0571
440.1520	0.0635
440.4220	0.0747
440.6910	0.0795
440.9610	0.0704
441.2300	0.0634
441.5000	0.0707
441.7690	0.0669
442.0390	0.0541
442.3080	0.0576
442.5780	0.0624
442.8470	0.0671
443.1170	0.0748
443.3860	0.0592
443.6560	0.0626
443.9250	0.0588
444.1950	0.0524
444.4640	0.0647
444.7340	0.0641
445.0030	0.0595
445.2730	0.0669
445.5420	0.0749
445.8120	0.0746
446.0810	0.0765
446.3510	0.0689
446.6200	0.0657
446.8900	0.0652
447.1590	0.0615
447.4290	0.0695
447.6980	0.0670
447.9680	0.0588
448.2380	0.0657
448.5070	0.0694
448.7770	0.0684
449.0460	0.0625
449.3160	0.0656
449.5850	0.0708
449.8550	0.0733
450.1240	0.0730
450.3940	0.0720
450.6630	0.0675
450.9330	0.0625
451.2020	0.0586
451.4720	0.0691
451.7410	0.0776
452.0110	0.0631
452.2800	0.0598
452.5500	0.0664
452.8190	0.0587
453.0890	0.0670
453.3580	0.0638
453.6280	0.0619
453.8970	0.0660
454.1670	0.0701
454.4360	0.0674
454.7060	0.0614
454.9750	0.0560
455.2450	0.0631
455.5140	0.0716
455.7840	0.0543
456.0530	0.0595
456.3230	0.0552
456.5920	0.0543
456.8620	0.0665
457.1310	0.0733
457.4010	0.0675
457.6700	0.0519
457.9400	0.0596
458.2090	0.0541
458.4790	0.0413
458.7480	0.0504
459.0180	0.0486
459.2870	0.0558
459.5570	0.0656
459.8260	0.0406
460.0960	0.0259
460.3660	0.0497
460.6350	0.0613
460.9050	0.0667
461.1740	0.0513
461.4440	0.0614
461.7130	0.0568
461.9830	0.0471
462.2520	0.0436
462.5220	0.0453
462.7910	0.0456
463.0610	0.0466
463.3300	0.0566
463.6000	0.0618
463.8690	0.0613
464.1390	0.0450
464.4080	0.0402
464.6780	0.0464
464.9470	0.0532
465.2170	0.0606
465.4860	0.0632
465.7560	0.0556
466.0250	0.0640
466.2950	0.0565
466.5640	0.0607
466.8340	0.0682
467.1030	0.0477
467.3730	0.0489
467.6420	0.0548
467.9120	0.0460
468.1810	0.0490
468.4510	0.0460
468.7200	0.0533
468.9900	0.0543
469.2590	0.0456
469.5290	0.0570
469.7980	0.0498
470.0680	0.0469
470.3370	0.0480
470.6070	0.0405
470.8760	0.0489
471.1460	0.0651
471.4150	0.0641
471.6850	0.0556
471.9540	0.0566
472.2240	0.0530
472.4930	0.0461
472.7630	0.0544
473.0330	0.0565
473.3020	0.0371
473.5720	0.0343
473.8410	0.0379
474.1110	0.0489
474.3800	0.0447
474.6500	0.0466
474.9190	0.0578
475.1890	0.0474
475.4580	0.0596
475.7280	0.0559
475.9970	0.0425
476.2670	0.0478
476.5360	0.0506
476.8060	0.0525
477.0750	0.0424
477.3450	0.0549
477.6140	0.0530
477.8840	0.0418
478.1530	0.0395
478.4230	0.0427
478.6920	0.0465
478.9620	0.0469
479.2310	0.0374
479.5010	0.0443
479.7700	0.0576
480.0400	0.0627
480.3090	0.0437
480.5790	0.0379
480.8480	0.0359
481.1180	0.0403
481.3870	0.0438
481.6570	0.0532
481.9260	0.0450
482.1960	0.0394
482.4650	0.0452
482.7350	0.0549
483.0040	0.0554
483.2740	0.0458
483.5430	0.0463
483.8130	0.0362
484.0820	0.0379
484.3520	0.0471
484.6210	0.0555
484.8910	0.0463
485.1610	0.0403
485.4300	0.0392
485.7000	0.0341
485.9690	0.0420
486.2390	0.0420
486.5080	0.0522
486.7780	0.0499
487.0470	0.0433
487.3170	0.0333
487.5860	0.0345
487.8560	0.0377
488.1250	0.0475
488.3950	0.0349
488.6640	0.0330
488.9340	0.0508
489.2030	0.0404
489.4730	0.0312
489.7420	0.0369
490.0120	0.0343
490.2810	0.0328
490.5510	0.0373
490.8200	0.0477
491.0900	0.0448
491.3590	0.0418
491.6290	0.0385
491.8980	0.0485
492.1680	0.0495
492.4370	0.0377
492.7070	0.0350
492.9760	0.0429
493.2460	0.0323
493.5150	0.0403
493.7850	0.0529
494.0540	0.0552
494.3240	0.0523
494.5930	0.0355
494.8630	0.0253
495.1320	0.0384
495.4020	0.0255
495.6710	0.0251
495.9410	0.0340
496.2100	0.0483
496.4800	0.0458
496.7490	0.0484
497.0190	0.0401
497.2890	0.0446
497.5580	0.0400
497.8280	0.0436
498.0970	0.0396
498.3670	0.0459
498.6360	0.0499
498.9060	0.0433
499.1750	0.0320
499.4450	0.0309
499.7140	0.0276
499.9840	0.0314
500.2530	0.0292
500.5230	0.0354
500.7920	0.0404
501.0620	0.0410
501.3310	0.0504
501.6010	0.0486
501.8700	0.0472
502.1400	0.0414
502.4090	0.0316
502.6790	0.0293
502.9480	0.0352
503.2180	0.0417
503.4870	0.0204
503.7570	0.0157
504.0260	0.0349
504.2960	0.0419
504.5650	0.0445
504.8350	0.0356
505.1040	0.0354
505.3740	0.0448
505.6430	0.0356
505.9130	0.0158
506.1820	0.0337
506.4520	0.0427
506.7210	0.0137
506.9910	0.0296
507.2600	0.0327
507.5300	0.0389
507.7990	0.0306
508.0690	0.0229
508.3380	0.0367
508.6080	0.0368
508.8770	0.0359
509.1470	0.0421
509.4160	0.0400
509.6860	0.0291
509.9560	0.0395
510.2250	0.0471
510.4950	0.0332
510.7640	0.0295
511.0340	0.0343
511.3030	0.0362
511.5730	0.0342
511.8420	0.0263
512.1120	0.0363
512.3810	0.0388
512.6510	0.0305
512.9200	0.0272
513.1900	0.0340
513.4590	0.0255
513.7290	0.0285
513.9980	0.0427
514.2680	0.0454
514.5370	0.0137
514.8070	0.0251
515.0760	0.0357
515.3460	0.0283
515.6150	0.0204
515.8850	0.0314
516.1540	0.0414
516.4240	0.0347
516.6930	0.0321
516.9630	0.0277
517.2320	0.0315
517.5020	0.0282
517.7710	0.0198
518.0410	0.0298
518.3100	0.0365
518.5800	0.0283
518.8490	0.0104
519.1190	0.0208
519.3880	0.0351
519.6580	0.0418
519.9270	0.0287
520.1970	0.0202
520.4660	0.0248
520.7360	0.0241
521.0050	0.0298
521.2750	0.0296
521.5440	0.0366
521.8140	0.0254
522.0840	0.0280
522.3530	0.0351
522.6230	0.0227
522.8920	0.0241
523.1620	0.0311
523.4310	0.0359
523.7010	0.0348
523.9700	0.0259
524.2400	0.0188
524.5090	0.0252
524.7790	0.0214
525.0480	0.0148
525.3180	0.0261
525.5870	0.0232
525.8570	0.0227
526.1260	0.0344
526.3960	0.0293
526.6650	0.0247
526.9350	0.0253
527.2040	0.0198
527.4740	0.0227
527.7430	0.0233
528.0130	0.0257
528.2820	0.0208
528.5520	0.0193
528.8210	0.0278
529.0910	0.0337
529.3600	0.0216
529.6300	0.0199
529.8990	0.0209
530.1690	0.0236
530.4380	0.0316
530.7080	0.0352
530.9770	0.0305
531.2470	0.0273
531.5160	0.0319
531.7860	0.0265
532.0550	0.0152
532.3250	0.0151
532.5940	0.0253
532.8640	0.0266
533.1330	0.0234
533.4030	0.0195
533.6720	0.0193
533.9420	0.0276
534.2120	0.0201
534.4810	0.0151
534.7510	0.0196
535.0200	-0.0010
535.2900	0.0095
535.5590	0.0205
535.8290	0.0209
536.0980	0.0278
536.3680	0.0303
536.6370	0.0261
536.9070	0.0315
537.1760	0.0289
537.4460	0.0297
537.7150	0.0257
537.9850	0.0196
538.2540	0.0203
538.5240	0.0251
538.7930	0.0322
539.0630	0.0209
539.3320	0.0255
539.6020	0.0321
539.8710	0.0292
540.1410	0.0252
540.4100	0.0307
540.6800	0.0244
540.9490	0.0226
541.2190	0.0234
541.4880	0.0131
541.7580	0.0176
542.0270	0.0247
542.2970	0.0208
542.5660	0.0211
542.8360	0.0154
543.1050	0.0147
543.3750	0.0169
543.6440	0.0159
543.9140	0.0173
544.1830	0.0173
544.4530	0.0247
544.7220	0.0207
544.9920	0.0144
545.2610	0.0233
545.5310	0.0225
545.8000	0.0189
546.0700	0.0190
546.3460	0.0175
546.6220	0.0179
546.8970	0.0155
547.1730	0.0213
547.4490	0.0167
547.7250	0.0229
548.0010	0.0209
548.2760	0.0252
548.5520	0.0246
548.8280	0.0174
549.1040	0.0192
549.3800	0.0197
549.6550	0.0250
549.9310	0.0269
550.2070	0.0227
550.4830	0.0169
550.7590	0.0181
551.0340	0.0153
551.3100	0.0211
551.5860	0.0194
551.8620	0.0172
552.1380	0.0143
552.4130	0.0129
552.6890	0.0128
552.9650	0.0184
553.2410	0.0152
553.5170	0.0146
553.7930	0.0152
554.0680	0.0163
554.3440	0.0144
554.6200	0.0218
554.8960	0.0192
555.1720	0.0155
555.4470	0.0181
555.7230	0.0163
555.9990	0.0153
556.2750	0.0173
556.5510	0.0217
556.8260	0.0169
557.1020	0.0130
557.3780	0.0195
557.6540	0.0179
557.9300	0.0148
558.2050	0.0158
558.4810	0.0125
558.7570	0.0119
559.0330	0.0105
559.3090	0.0163
559.5840	0.0237
559.8600	0.0221
560.1360	0.0165
560.4120	0.0168
560.6880	0.0139
560.9630	0.0139
561.2390	-0.0083
561.5150	-0.0009
561.7910	0.0122
562.0670	0.0151
562.3420	0.0199
562.6180	0.0153
562.8940	0.0078
563.1700	0.0159
563.4460	0.0152
563.7210	0.0096
563.9970	0.0110
564.2730	0.0138
564.5490	0.0188
564.8250	0.0213
565.1000	-0.0078
565.3760	0.0007
565.6520	0.0171
565.9280	0.0222
566.2040	0.0163
566.4790	0.0184
566.7550	0.0162
567.0310	0.0142
567.3070	0.0122
567.5830	0.0184
567.8580	0.0157
568.1340	0.0143
568.4100	0.0122
568.6860	0.0156
568.9620	0.0133
569.2370	0.0082
569.5130	0.0063
569.7890	0.0152
570.0650	0.0119
570.3410	0.0131
570.6170	0.0145
570.8920	0.0164
571.1680	0.0150
571.4440	0.0175
571.7200	0.0169
571.9960	0.0202
572.2710	0.0203
572.5470	0.0125
572.8230	0.0104
573.0990	0.0152
573.3750	0.0054
573.6500	0.0089
573.9260	0.0148
574.2020	0.0124
574.4780	0.0137
574.7540	0.0132
575.0290	0.0137
575.3050	0.0203
575.5810	0.0147
575.8570	0.0112
576.1330	0.0112
576.4080	0.0142
576.6840	0.0181
576.9600	0.0205
577.2390	0.0170
577.5170	0.0126
577.7960	0.0166
578.0750	0.0132
578.3540	0.0084
578.6320	0.0094
578.9110	0.0193
579.1900	0.0127
579.4690	0.0135
579.7470	0.0180
580.0260	0.0162
580.3050	0.0122
580.5840	0.0177
580.8620	0.0136
581.1410	0.0141
581.4200	0.0153
581.6990	0.0157
581.9770	0.0182
582.2560	0.0139
582.5350	0.0172
582.8140	0.0155
583.0920	0.0183
583.3710	0.0183
583.6500	0.0192
583.9290	0.0202
584.2070	0.0136
584.4860	0.0166
584.7650	0.0207
585.0430	0.0142
585.3220	0.0151
585.6010	0.0170
585.8800	0.0187
586.1580	0.0131
586.4370	0.0083
586.7160	0.0130
586.9950	0.0197
587.2730	0.0160
587.5520	0.0148
587.8310	0.0185
588.1100	0.0239
588.3880	0.0144
588.6670	0.0070
588.9460	0.0074
589.2250	0.0062
589.5030	0.0080
589.7820	0.0087
590.0610	0.0090
590.3400	0.0125
590.6180	-0.0067
590.8970	-0.0165
591.1760	0.0040
591.4550	0.0138
591.7330	0.0144
592.0120	0.0189
592.2910	0.0159
592.5700	0.0157
592.8480	-0.0002
593.1270	-0.0003
593.4060	0.0146
593.6840	0.0124
593.9630	0.0142
594.2420	0.0154
594.5210	0.0114
594.7990	0.0159
595.0780	0.0205
595.3570	0.0139
595.6360	0.0079
595.9140	0.0111
596.1930	0.0122
596.4720	0.0118
596.7510	0.0130
597.0290	0.0170
597.3080	0.0168
597.5870	0.0115
597.8660	0.0115
598.1440	0.0107
598.4230	0.0094
598.7020	0.0071
598.9810	0.0120
599.2590	0.0134
599.5380	0.0147
599.8170	0.0106
