199.8780	0.0531
200.1320	0.0830
200.3850	0.0014
200.6390	0.0188
200.8920	0.0673
201.1460	0.0362
201.4000	0.0225
201.6530	0.0258
201.9070	0.0545
202.1610	0.0006
202.4140	-0.0107
202.6680	0.0786
202.9220	0.0612
203.1750	0.0515
203.4290	0.0128
203.6830	0.0789
203.9360	0.1330
204.1900	0.0649
204.4430	0.1660
204.6970	0.2010
204.9510	0.0781
205.2040	0.0185
205.4580	0.0583
205.7120	0.1117
205.9650	0.0544
206.2190	0.0607
206.4730	0.0672
206.7260	0.0445
206.9800	0.0947
207.2330	0.0351
207.4870	-0.0199
207.7410	0.0407
207.9940	0.0826
208.2480	0.0829
208.5020	0.0372
208.7550	0.0489
209.0090	0.1253
209.2630	0.1550
209.5160	0.0524
209.7700	0.0111
210.0240	0.0566
210.2770	0.0494
210.5310	0.0038
210.7840	-0.0124
211.0380	0.0090
211.2920	-0.0203
211.5450	-0.0062
211.7990	0.1168
212.0530	0.1814
212.3060	0.1370
212.5600	0.0358
212.8140	0.0198
213.0670	0.0280
213.3210	0.0472
213.5750	0.0518
213.8280	0.0883
214.0820	0.1652
214.3350	0.0793
214.5890	0.0365
214.8430	0.0464
215.0960	0.1474
215.3500	0.1071
215.6040	0.0857
215.8570	0.0404
216.1110	0.0577
216.3650	0.0226
216.6180	0.0126
216.8720	0.0446
217.1260	0.0237
217.3790	0.0855
217.6330	0.0351
217.8860	0.0520
218.1400	0.0504
218.3940	0.0228
218.6470	0.0168
218.9010	0.0135
219.1550	0.0523
219.4080	0.0054
219.6620	-0.0203
219.9160	0.0506
220.1690	0.0985
220.4230	0.0842
220.6770	0.0735
220.9300	0.0225
221.1840	0.0002
221.4370	-0.0206
221.6910	-0.0160
221.9450	0.0171
222.1980	0.0341
222.4520	0.0581
222.7060	0.0995
222.9590	0.0830
223.2130	0.0965
223.4670	0.0702
223.7200	0.0843
223.9740	0.0924
224.2280	0.0405
224.4810	0.0676
224.7350	0.0455
224.9880	0.0685
225.2420	0.1230
225.4960	0.0860
225.7490	0.1566
226.0030	0.1507
226.2570	0.0781
226.5100	0.0131
226.7640	0.0850
227.0180	0.1043
227.2710	0.1071
227.5250	0.0709
227.7790	0.0252
228.0320	0.0800
228.2860	0.1554
228.5390	0.1009
228.7930	0.0330
229.0470	0.0721
229.3000	0.1904
229.5540	0.1992
229.8080	0.0929
230.0610	0.0983
230.3150	0.1214
230.5690	0.0287
230.8220	0.0386
231.0760	0.0721
231.3300	0.0591
231.5830	0.0777
231.8370	0.0226
232.0900	0.0188
232.3440	0.0411
232.5980	0.0618
232.8510	0.0966
233.1050	0.0660
233.3590	0.1930
233.6120	0.1034
233.8660	0.0494
234.1200	0.0629
234.3730	0.1536
234.6270	0.1260
234.8800	0.0165
235.1340	0.0321
235.3880	0.1420
235.6410	0.0690
235.8950	0.0005
236.1490	0.0313
236.4020	0.0724
236.6560	0.0937
236.9100	0.0093
237.1630	0.0735
237.4170	0.0660
237.6710	-0.0096
237.9240	0.0375
238.1780	0.0795
238.4310	0.0640
238.6850	0.0340
238.9390	0.0716
239.1920	0.0434
239.4460	0.1313
239.7000	0.0955
239.9530	0.0007
240.2070	0.0966
240.4610	0.1116
240.7140	0.0667
240.9680	0.0463
241.2220	0.0352
241.4750	0.0446
241.7290	0.0160
241.9820	0.0372
242.2360	0.1155
242.4900	0.0898
242.7430	0.0661
242.9970	0.1368
243.2510	0.0647
243.5040	0.0681
243.7580	0.0138
244.0120	0.0290
244.2650	0.2113
244.5190	0.1820
244.7730	0.0515
245.0260	0.0409
245.2800	0.0671
245.5330	0.1237
245.7870	0.0662
246.0410	0.0629
246.2940	0.1355
246.5480	0.0917
246.8020	0.0580
247.0550	0.0767
247.3090	0.1509
247.5630	0.1406
247.8160	0.0979
248.0700	0.1069
248.3240	0.1918
248.5770	0.0932
248.8310	0.0107
249.0840	0.0648
249.3380	0.0800
249.5920	0.1070
249.8450	0.0389
250.0990	0.0929
250.3530	0.1460
250.6060	0.0861
250.8600	0.0190
251.1140	-0.0099
251.3670	0.1558
251.6210	0.1392
251.8750	0.0767
252.1280	0.0969
252.3820	0.1188
252.6350	0.1091
252.8890	0.0802
253.1430	0.0254
253.3960	0.0825
253.6500	0.1379
253.9040	0.0677
254.1590	0.0088
254.4130	0.0945
254.6670	0.1713
254.9220	0.1816
255.1760	0.1843
255.4310	0.0879
255.6850	0.0876
255.9390	0.1072
256.1940	0.0282
256.4480	0.0280
256.7020	0.0591
256.9570	0.0882
257.2110	0.0942
257.4650	0.1267
257.7200	0.2923
257.9740	0.1835
258.2280	0.1221
258.4830	0.0675
258.7370	0.0557
258.9920	0.0754
259.2460	0.0745
259.5000	0.0841
259.7550	0.1352
260.0090	0.1358
260.2630	0.0723
260.5180	0.1129
260.7720	0.1024
261.0260	0.0447
261.2810	0.0294
261.5350	0.0459
261.7890	0.0625
262.0440	0.0303
262.2980	0.1345
262.5530	0.1268
262.8070	0.0599
263.0610	0.0254
263.3160	0.0854
263.5700	0.1390
263.8240	0.0664
264.0790	0.0483
264.3330	0.0227
264.5870	0.0216
264.8420	0.1813
265.0960	0.1418
265.3510	0.1693
265.6050	0.1781
265.8590	0.1086
266.1140	0.0692
266.3680	0.0957
266.6220	0.0975
266.8770	0.1129
267.1310	0.0885
267.3850	0.1261
267.6400	0.0873
267.8940	0.0763
268.1480	0.0364
268.4030	0.0649
268.6570	0.0768
268.9120	0.0498
269.1660	0.0262
269.4200	0.0693
269.6750	0.1174
269.9290	0.1113
270.1830	0.1128
270.4380	0.1134
270.6920	0.1080
270.9460	0.0942
271.2010	0.1964
271.4550	0.0878
271.7090	0.0313
271.9640	0.0799
272.2180	0.0376
272.4730	0.0011
272.7270	0.0966
272.9810	0.1437
273.2360	0.0586
273.4900	0.0513
273.7440	0.1018
273.9990	0.1384
274.2530	0.0643
274.5070	0.0238
274.7620	0.0604
275.0160	0.0819
275.2710	0.1036
275.5250	0.0822
275.7790	0.0618
276.0340	0.0556
276.2880	0.0480
276.5420	0.0974
276.7970	0.1341
277.0510	0.1335
277.3050	0.1803
277.5600	0.1082
277.8140	0.0848
278.0680	0.1456
278.3230	0.0755
278.5770	0.0864
278.8320	0.1690
279.0860	0.1769
279.3400	0.1958
279.5950	0.1306
279.8490	0.1337
280.1030	0.1109
280.3580	0.1076
280.6120	0.1087
280.8660	0.1019
281.1210	0.1053
281.3750	0.0469
281.6290	0.0287
281.8840	0.1277
282.1380	0.1838
282.3930	0.1377
282.6470	0.1197
282.9010	0.1340
283.1560	0.0877
283.4100	0.1318
283.6640	0.0920
283.9190	0.0913
284.1730	0.0721
284.4270	0.0821
284.6820	0.0743
284.9360	0.1082
285.1910	0.1263
285.4450	0.1196
285.6990	0.0824
285.9540	0.0498
286.2080	0.1109
286.4620	0.1419
286.7170	0.0838
286.9710	0.1806
287.2250	0.2330
287.4800	0.0797
287.7340	0.0015
287.9880	0.1118
288.2430	0.2074
288.4970	0.0842
288.7520	0.0511
289.0060	0.1703
289.2600	0.1010
289.5150	0.0648
289.7690	0.0647
290.0230	0.1155
290.2780	0.1383
290.5320	0.1316
290.7860	0.0927
291.0410	0.1593
291.2950	0.1733
291.5490	0.0786
291.8040	0.0807
292.0580	0.1241
292.3130	0.0951
292.5670	0.0820
292.8210	0.0743
293.0760	0.1324
293.3300	0.1830
293.5840	0.2141
293.8390	0.1042
294.0930	0.0604
294.3470	0.0880
294.6020	0.1130
294.8560	0.0992
295.1110	0.0549
295.3650	0.0650
295.6190	0.1104
295.8740	0.1008
296.1280	0.1158
296.3820	0.1824
296.6370	0.1844
296.8910	0.0906
297.1450	0.1217
297.4000	0.2476
297.6540	0.1980
297.9080	0.1097
298.1630	0.1003
298.4170	0.0930
298.6720	0.0494
298.9260	0.0866
299.1800	0.1288
299.4350	0.1479
299.6890	0.0930
299.9430	0.1294
300.1980	0.1740
300.4520	0.2150
300.7060	0.1887
300.9610	0.2057
301.2150	0.1642
301.4690	0.2083
301.7240	0.1654
301.9780	0.1626
302.2330	0.1933
302.4870	0.2419
302.7410	0.2403
302.9960	0.1480
303.2500	0.1930
303.5040	0.2804
303.7590	0.1983
304.0130	0.2037
304.2670	0.2911
304.5220	0.2253
304.7760	0.1636
305.0310	0.1364
305.2850	0.1343
305.5390	0.1667
305.7940	0.1209
306.0480	0.1031
306.3020	0.2571
306.5570	0.2199
306.8110	0.1971
307.0650	0.2069
307.3200	0.2443
307.5740	0.2028
307.8280	0.1405
308.0830	0.1595
308.3370	0.1665
308.5920	0.1937
308.8460	0.2473
309.1000	0.1985
309.3550	0.3032
309.6090	0.3086
309.8630	0.2069
310.1180	0.1282
310.3720	0.1913
310.6260	0.2198
310.8810	0.1751
311.1350	0.1913
311.3890	0.2390
311.6440	0.2164
311.8980	0.1696
312.1530	0.2239
312.4070	0.2942
312.6610	0.2941
312.9160	0.2133
313.1700	0.1359
313.4290	0.2262
313.6880	0.2750
313.9470	0.2318
314.2060	0.1643
314.4650	0.2065
314.7240	0.2264
314.9830	0.2565
315.2420	0.2062
315.5010	0.2091
315.7600	0.2175
316.0190	0.2587
316.2780	0.2310
316.5360	0.1890
316.7950	0.2219
317.0540	0.2606
317.3130	0.3929
317.5720	0.3069
317.8310	0.2611
318.0900	0.1967
318.3490	0.1842
318.6080	0.3102
318.8670	0.2667
319.1260	0.2827
319.3850	0.2433
319.6440	0.3141
319.9030	0.2833
320.1620	0.1952
320.4210	0.1721
320.6800	0.1793
320.9390	0.2787
321.1980	0.2115
321.4570	0.1887
321.7160	0.2140
321.9750	0.2820
322.2340	0.3034
322.4930	0.2861
322.7520	0.3259
323.0100	0.3342
323.2690	0.3184
323.5280	0.2777
323.7870	0.2500
324.0460	0.2209
324.3050	0.2543
324.5640	0.2012
324.8230	0.2152
325.0820	0.2437
325.3410	0.2571
325.6000	0.2079
325.8590	0.1685
326.1180	0.2232
326.3770	0.2387
326.6360	0.2606
326.8950	0.3654
327.1540	0.3469
327.4130	0.2037
327.6720	0.2286
327.9310	0.3381
328.1900	0.3634
328.4490	0.3385
328.7080	0.2442
328.9670	0.2286
329.2260	0.2401
329.4850	0.2845
329.7430	0.3458
330.0020	0.3747
330.2610	0.3052
330.5200	0.2649
330.7790	0.2617
331.0380	0.2771
331.2970	0.2203
331.5560	0.1497
331.8150	0.1548
332.0740	0.1951
332.3330	0.2333
332.5920	0.2403
332.8510	0.2049
333.1100	0.2047
333.3690	0.1949
333.6280	0.1731
333.8870	0.2849
334.1460	0.3002
334.4050	0.2772
334.6640	0.2735
334.9230	0.2163
335.1820	0.2376
335.4410	0.2588
335.7000	0.2748
335.9590	0.2490
336.2170	0.2059
336.4760	0.2398
336.7350	0.2779
336.9940	0.2423
337.2530	0.2979
337.5120	0.2646
337.7710	0.2534
338.0300	0.2763
338.2890	0.3186
338.5480	0.2353
338.8070	0.2209
339.0660	0.2628
339.3250	0.2175
339.5840	0.2264
339.8430	0.2384
340.1020	0.2240
340.3610	0.2385
340.6200	0.2690
340.8790	0.2846
341.1380	0.2617
341.3970	0.2262
341.6560	0.2157
341.9150	0.1983
342.1740	0.2616
342.4330	0.2485
342.6910	0.2245
342.9500	0.2238
343.2090	0.1713
343.4680	0.2628
343.7270	0.2369
343.9860	0.1867
344.2450	0.1588
344.5040	0.2490
344.7630	0.2961
345.0220	0.2706
345.2810	0.1984
345.5400	0.1769
345.7990	0.2083
346.0580	0.2287
346.3170	0.2158
346.5760	0.2787
346.8350	0.2443
347.0940	0.1616
347.3530	0.1675
347.6120	0.1812
347.8710	0.2462
348.1300	0.2518
348.3890	0.2104
348.6480	0.2436
348.9070	0.2211
349.1660	0.1670
349.4240	0.1643
349.6830	0.2023
349.9420	0.2640
350.2010	0.2485
350.4600	0.2488
350.7190	0.2610
350.9780	0.2277
351.2370	0.1816
351.4960	0.1501
351.7550	0.2059
352.0140	0.2384
352.2730	0.1801
352.5320	0.1788
352.7910	0.2519
353.0500	0.2044
353.3090	0.1388
353.5680	0.1413
353.8270	0.1964
354.0860	0.2416
354.3450	0.2611
354.6040	0.1944
354.8630	0.2235
355.1220	0.2301
355.3810	0.2324
355.6400	0.2028
355.8980	0.3368
356.1570	0.3483
356.4160	0.2366
356.6750	0.2741
356.9340	0.2704
357.1930	0.2625
357.4520	0.2627
357.7110	0.2396
357.9700	0.2520
358.2290	0.2196
358.4880	0.2408
358.7470	0.1582
359.0060	0.1946
359.2650	0.2646
359.5240	0.1758
359.7830	0.1632
360.0420	0.1674
360.3010	0.2689
360.5600	0.2059
360.8190	0.1795
361.0780	0.1636
361.3370	0.1911
361.5960	0.2131
361.8550	0.1713
362.1140	0.2184
362.3720	0.2529
362.6310	0.1710
362.8900	0.1831
363.1490	0.2013
363.4080	0.2728
363.6670	0.2301
363.9260	0.1736
364.1850	0.1753
364.4440	0.1812
364.7030	0.1412
364.9620	0.2042
365.2210	0.3109
365.4800	0.2574
365.7390	0.2484
365.9990	0.2423
366.2580	0.2031
366.5180	0.1843
366.7770	0.1468
367.0370	0.2429
367.2960	0.2125
367.5560	0.2119
367.8150	0.2257
368.0750	0.2513
368.3340	0.2225
368.5940	0.1976
368.8530	0.2327
369.1130	0.1959
369.3720	0.1666
369.6320	0.2416
369.8910	0.2171
370.1500	0.1494
370.4100	0.2302
370.6690	0.2592
370.9290	0.1494
371.1880	0.1357
371.4480	0.1884
371.7070	0.2741
371.9670	0.1943
372.2260	0.1579
372.4860	0.3114
372.7450	0.2720
373.0050	0.2541
373.2640	0.1574
373.5240	0.1672
373.7830	0.1610
374.0430	0.2426
374.3020	0.2015
374.5610	0.2474
374.8210	0.2002
375.0800	0.1880
375.3400	0.2629
375.5990	0.2450
375.8590	0.2538
376.1180	0.1950
376.3780	0.1615
376.6370	0.2517
376.8970	0.2473
377.1560	0.1683
377.4160	0.1551
377.6750	0.1478
377.9350	0.2102
378.1940	0.2341
378.4540	0.2308
378.7130	0.2454
378.9720	0.2175
379.2320	0.1910
379.4910	0.1894
379.7510	0.1978
380.0100	0.2260
380.2700	0.1821
380.5290	0.1571
380.7890	0.2227
381.0480	0.2243
381.3080	0.1812
381.5670	0.1650
381.8270	0.1798
382.0860	0.1411
382.3460	0.1524
382.6050	0.1275
382.8650	0.1778
383.1240	0.2366
383.3830	0.2075
383.6430	0.2601
383.9020	0.2360
384.1620	0.1811
384.4210	0.1177
384.6810	0.2532
384.9400	0.3580
385.2000	0.2768
385.4590	0.2211
385.7190	0.1702
385.9780	0.1446
386.2380	0.1940
386.4970	0.1770
386.7570	0.1102
387.0160	0.2124
387.2760	0.2674
387.5350	0.2163
387.7940	0.2282
388.0540	0.2098
388.3130	0.2315
388.5730	0.1640
388.8320	0.1534
389.0920	0.1720
389.3510	0.1747
389.6110	0.1769
389.8700	0.2043
390.1300	0.2765
390.3890	0.2712
390.6490	0.1795
390.9080	0.1035
391.1680	0.1765
391.4270	0.2764
391.6860	0.2788
391.9460	0.1915
392.2050	0.2123
392.4650	0.2641
392.7240	0.1834
392.9840	0.2275
393.2430	0.2751
393.5030	0.2482
393.7620	0.2167
394.0220	0.1583
394.2810	0.1377
394.5410	0.1532
394.8000	0.1864
395.0600	0.1745
395.3190	0.2028
395.5790	0.1636
395.8380	0.1284
396.0970	0.1818
396.3570	0.2873
396.6160	0.2043
396.8760	0.1405
397.1350	0.1265
397.3950	0.1091
397.6540	0.1616
397.9140	0.3443
398.1730	0.2960
398.4330	0.2538
398.6920	0.2563
398.9520	0.2438
399.2110	0.1694
399.4710	0.2372
399.7300	0.2021
399.9900	0.2107
400.2490	0.1781
400.5080	0.1479
400.7680	0.1429
401.0270	0.1490
401.2870	0.2073
401.5460	0.2034
401.8060	0.2020
402.0650	0.3271
402.3250	0.2366
402.5840	0.3019
402.8440	0.2352
403.1030	0.1598
403.3630	0.3239
403.6220	0.2283
403.8820	0.1836
404.1410	0.1983
404.4010	0.3201
404.6600	0.2529
404.9260	0.1735
405.1930	0.1827
405.4590	0.1775
405.7260	0.1330
405.9920	0.1143
406.2590	0.1267
406.5250	0.1192
406.7920	0.2055
407.0580	0.1965
407.3250	0.1153
407.5910	0.1573
407.8580	0.2089
408.1240	0.2314
408.3910	0.1556
408.6570	0.1368
408.9240	0.1628
409.1900	0.1835
409.4570	0.2717
409.7230	0.2088
409.9900	0.2142
410.2560	0.2790
410.5230	0.1631
410.7890	0.1267
411.0560	0.1717
411.3220	0.1496
411.5890	0.1025
411.8550	0.1739
412.1220	0.1956
412.3880	0.1628
412.6550	0.1104
412.9210	0.0986
413.1880	0.1942
413.4540	0.3014
413.7210	0.1602
413.9870	0.1357
414.2540	0.1780
414.5200	0.1592
414.7870	0.1052
415.0530	0.1721
415.3200	0.2024
415.5860	0.2004
415.8530	0.1704
416.1190	0.1459
416.3860	0.1646
416.6520	0.1287
416.9190	0.1464
417.1850	0.1108
417.4520	0.1895
417.7180	0.2688
417.9850	0.1963
418.2510	0.1352
418.5180	0.1715
418.7840	0.1376
419.0510	0.1264
419.3170	0.1384
419.5840	0.1701
419.8500	0.1838
420.1170	0.1478
420.3830	0.0990
420.6500	0.1046
420.9160	0.1605
421.1830	0.1061
421.4490	0.1301
421.7160	0.1778
421.9820	0.2045
422.2490	0.1591
422.5150	0.2141
422.7820	0.2377
423.0480	0.2115
423.3150	0.2447
423.5810	0.1966
423.8480	0.2758
424.1140	0.3036
424.3810	0.1731
424.6470	0.1941
424.9140	0.2249
425.1800	0.1836
425.4470	0.1751
425.7130	0.2200
425.9800	0.3095
426.2460	0.3603
426.5130	0.2194
426.7790	0.0959
427.0460	0.1230
427.3120	0.2018
427.5790	0.1426
427.8450	0.1448
428.1120	0.1798
428.3780	0.2230
428.6450	0.3973
428.9110	0.2168
429.1780	0.1561
429.4440	0.1622
429.7110	0.1472
429.9770	0.0922
430.2440	0.1685
430.5100	0.1791
430.7770	0.1821
431.0430	0.2126
431.3100	0.2055
431.5760	0.1603
431.8430	0.2427
432.1090	0.2126
432.3760	0.1766
432.6420	0.2461
432.9090	0.1884
433.1750	0.1227
433.4420	0.1215
433.7080	0.2711
433.9750	0.3450
434.2410	0.2550
434.5080	0.2294
434.7740	0.1908
435.0410	0.2031
435.3070	0.1415
435.5740	0.1696
435.8400	0.2158
436.1100	0.2922
436.3790	0.2437
436.6490	0.2213
436.9180	0.2419
437.1880	0.2759
437.4570	0.2223
437.7270	0.1527
437.9960	0.1780
438.2660	0.1358
438.5350	0.1640
438.8050	0.2235
439.0740	0.2216
439.3440	0.2003
439.6130	0.2097
439.8830	0.1432
440.1520	0.1715
440.4220	0.2064
440.6910	0.2016
440.9610	0.1765
441.2300	0.1629
441.5000	0.1835
441.7690	0.1481
442.0390	0.1191
442.3080	0.1500
442.5780	0.2187
442.8470	0.1951
443.1170	0.2543
443.3860	0.1850
443.6560	0.1466
443.9250	0.1250
444.1950	0.2552
444.4640	0.2523
444.7340	0.1560
445.0030	0.1190
445.2730	0.1688
445.5420	0.2403
445.8120	0.1996
446.0810	0.2216
446.3510	0.2503
446.6200	0.2064
446.8900	0.1722
447.1590	0.1386
447.4290	0.1914
447.6980	0.2900
447.9680	0.1950
448.2380	0.1999
448.5070	0.2205
448.7770	0.1952
449.0460	0.1595
449.3160	0.2064
449.5850	0.2330
449.8550	0.2297
450.1240	0.2134
450.3940	0.1833
450.6630	0.1873
450.9330	0.1946
451.2020	0.1490
451.4720	0.1779
451.7410	0.2474
452.0110	0.1986
452.2800	0.1179
452.5500	0.1377
452.8190	0.1455
453.0890	0.2127
453.3580	0.1702
453.6280	0.1379
453.8970	0.1693
454.1670	0.2110
454.4360	0.1889
454.7060	0.1555
454.9750	0.1523
455.2450	0.1804
455.5140	0.2023
455.7840	0.1226
456.0530	0.1646
456.3230	0.1563
456.5920	0.1269
456.8620	0.1882
457.1310	0.2288
457.4010	0.2096
457.6700	0.1264
457.9400	0.1769
458.2090	0.1584
458.4790	0.1496
458.7480	0.1438
459.0180	0.0878
459.2870	0.1459
459.5570	0.1811
459.8260	0.3259
460.0960	0.4217
460.3660	0.3350
460.6350	0.2286
460.9050	0.2319
461.1740	0.1427
461.4440	0.1424
461.7130	0.1582
461.9830	0.1145
462.2520	0.0794
462.5220	0.1524
462.7910	0.1589
463.0610	0.1156
463.3300	0.2225
463.6000	0.2369
463.8690	0.1948
464.1390	0.1163
464.4080	0.0835
464.6780	0.1220
464.9470	0.1568
465.2170	0.1735
465.4860	0.1711
465.7560	0.1602
466.0250	0.2099
466.2950	0.1606
466.5640	0.1761
466.8340	0.2192
467.1030	0.2996
467.3730	0.1873
467.6420	0.1337
467.9120	0.1350
468.1810	0.1548
468.4510	0.1169
468.7200	0.1285
468.9900	0.1576
469.2590	0.2632
469.5290	0.2611
469.7980	0.1382
470.0680	0.1307
470.3370	0.1541
470.6070	0.1097
470.8760	0.1307
471.1460	0.2152
471.4150	0.2317
471.6850	0.1806
471.9540	0.1601
472.2240	0.1580
472.4930	0.1543
472.7630	0.1614
473.0330	0.2295
473.3020	0.3266
473.5720	0.2040
473.8410	0.0941
474.1110	0.1268
474.3800	0.1385
474.6500	0.1481
474.9190	0.1665
475.1890	0.1134
475.4580	0.1372
475.7280	0.1712
475.9970	0.2599
476.2670	0.1998
476.5360	0.1625
476.8060	0.1936
477.0750	0.1275
477.3450	0.1747
477.6140	0.1753
477.8840	0.2695
478.1530	0.1907
478.4230	0.1168
478.6920	0.1563
478.9620	0.1578
479.2310	0.0944
479.5010	0.1045
479.7700	0.1934
480.0400	0.2518
480.3090	0.1451
480.5790	0.0851
480.8480	0.1035
481.1180	0.2331
481.3870	0.1908
481.6570	0.1886
481.9260	0.1617
482.1960	0.1343
482.4650	0.1132
482.7350	0.1397
483.0040	0.1777
483.2740	0.1583
483.5430	0.1530
483.8130	0.0948
484.0820	0.1200
484.3520	0.1678
484.6210	0.1192
484.8910	0.1054
485.1610	0.1368
485.4300	0.2592
485.7000	0.1573
485.9690	0.1189
486.2390	0.1492
486.5080	0.2062
486.7780	0.1750
487.0470	0.1291
487.3170	0.1174
487.5860	0.1652
487.8560	0.1364
488.1250	0.1399
488.3950	0.1113
488.6640	0.1210
488.9340	0.1709
489.2030	0.1224
489.4730	0.1037
489.7420	0.1329
490.0120	0.0989
490.2810	0.0837
490.5510	0.1336
490.8200	0.1822
491.0900	0.2375
491.3590	0.1759
491.6290	0.1339
491.8980	0.2195
492.1680	0.1941
492.4370	0.0974
492.7070	0.1026
492.9760	0.2380
493.2460	0.1493
493.5150	0.1219
493.7850	0.1964
494.0540	0.2369
494.3240	0.1923
494.5930	0.0997
494.8630	0.0919
495.1320	0.1517
495.4020	0.2470
495.6710	0.1680
495.9410	0.1236
496.2100	0.1895
496.4800	0.1693
496.7490	0.1953
497.0190	0.2069
497.2890	0.2196
497.5580	0.1452
497.8280	0.1369
498.0970	0.1497
498.3670	0.2053
498.6360	0.1949
498.9060	0.1198
499.1750	0.1064
499.4450	0.1368
499.7140	0.1073
499.9840	0.0951
500.2530	0.1027
500.5230	0.1519
500.7920	0.1398
501.0620	0.1246
501.3310	0.2067
501.6010	0.2164
501.8700	0.1900
502.1400	0.1494
502.4090	0.1192
502.6790	0.1220
502.9480	0.1440
503.2180	0.1509
503.4870	0.3025
503.7570	0.1997
504.0260	0.1360
504.2960	0.1469
504.5650	0.2024
504.8350	0.1721
505.1040	0.1435
505.3740	0.2004
505.6430	0.1550
505.9130	0.2780
506.1820	0.2591
506.4520	0.1714
506.7210	0.3143
506.9910	0.2778
507.2600	0.1328
507.5300	0.1445
507.7990	0.1345
508.0690	0.1175
508.3380	0.1671
508.6080	0.1497
508.8770	0.1707
509.1470	0.2091
509.4160	0.1769
509.6860	0.1108
509.9560	0.2061
510.2250	0.2403
510.4950	0.1434
510.7640	0.1146
511.0340	0.1647
511.3030	0.1844
511.5730	0.1412
511.8420	0.0937
512.1120	0.1611
512.3810	0.1849
512.6510	0.1253
512.9200	0.0961
513.1900	0.1490
513.4590	0.1285
513.7290	0.1243
513.9980	0.1840
514.2680	0.2095
514.5370	0.4468
514.8070	0.3413
515.0760	0.1718
515.3460	0.1501
515.6150	0.1139
515.8850	0.1563
516.1540	0.2019
516.4240	0.1766
516.6930	0.1704
516.9630	0.1319
517.2320	0.1445
517.5020	0.1434
517.7710	0.1109
518.0410	0.1433
518.3100	0.1675
518.5800	0.1421
518.8490	0.2186
519.1190	0.1756
519.3880	0.1414
519.6580	0.2013
519.9270	0.1524
520.1970	0.0944
520.4660	0.0773
520.7360	0.1095
521.0050	0.1650
521.2750	0.1340
521.5440	0.1747
521.8140	0.1324
522.0840	0.1563
522.3530	0.1756
522.6230	0.1000
522.8920	0.1445
523.1620	0.1780
523.4310	0.1945
523.7010	0.1625
523.9700	0.1363
524.2400	0.1060
524.5090	0.1203
524.7790	0.0913
525.0480	0.0743
525.3180	0.1619
525.5870	0.1140
525.8570	0.0854
526.1260	0.1908
526.3960	0.1804
526.6650	0.1204
526.9350	0.1071
527.2040	0.1124
527.4740	0.1417
527.7430	0.1325
528.0130	0.0856
528.2820	0.1079
528.5520	0.1360
528.8210	0.1467
529.0910	0.1574
529.3600	0.1214
529.6300	0.1294
529.8990	0.1240
530.1690	0.1205
530.4380	0.1864
530.7080	0.1677
530.9770	0.1372
531.2470	0.1414
531.5160	0.2262
531.7860	0.1891
532.0550	0.1065
532.3250	0.0882
532.5940	0.1483
532.8640	0.1745
533.1330	0.1397
533.4030	0.0889
533.6720	0.1137
533.9420	0.1914
534.2120	0.1170
534.4810	0.0725
534.7510	0.1239
535.0200	0.3089
535.2900	0.1822
535.5590	0.0876
535.8290	0.1372
536.0980	0.2089
536.3680	0.1797
536.6370	0.1369
536.9070	0.2015
537.1760	0.2013
537.4460	0.1764
537.7150	0.1443
537.9850	0.1375
538.2540	0.1609
538.5240	0.1712
538.7930	0.1898
539.0630	0.1455
539.3320	0.1782
539.6020	0.1832
539.8710	0.1518
540.1410	0.1744
540.4100	0.2141
540.6800	0.1488
540.9490	0.1423
541.2190	0.1689
541.4880	0.2576
541.7580	0.2565
542.0270	0.1642
542.2970	0.1372
542.5660	0.1622
542.8360	0.1074
543.1050	0.0995
543.3750	0.1350
543.6440	0.1360
543.9140	0.1096
544.1830	0.1001
544.4530	0.1693
544.7220	0.1451
544.9920	0.0842
545.2610	0.1252
545.5310	0.1572
545.8000	0.1508
546.0700	0.1271
546.3460	0.1061
546.6220	0.1237
546.8970	0.1225
547.1730	0.1494
547.4490	0.1092
547.7250	0.1784
548.0010	0.1763
548.2760	0.1613
548.5520	0.1461
548.8280	0.1402
549.1040	0.1588
549.3800	0.1495
549.6550	0.1801
549.9310	0.2075
550.2070	0.2524
550.4830	0.1559
550.7590	0.1083
551.0340	0.1133
551.3100	0.1702
551.5860	0.1361
551.8620	0.1923
552.1380	0.1617
552.4130	0.1224
552.6890	0.0915
552.9650	0.0889
553.2410	0.0998
553.5170	0.1367
553.7930	0.1168
554.0680	0.1044
554.3440	0.1173
554.6200	0.1906
554.8960	0.1371
555.1720	0.0889
555.4470	0.1394
555.7230	0.1336
555.9990	0.1055
556.2750	0.1123
556.5510	0.1762
556.8260	0.1471
557.1020	0.1064
557.3780	0.1643
557.6540	0.1574
557.9300	0.1255
558.2050	0.1230
558.4810	0.0984
558.7570	0.1212
559.0330	0.1177
559.3090	0.1860
559.5840	0.1889
559.8600	0.1695
560.1360	0.1437
560.4120	0.1247
560.6880	0.1153
560.9630	0.1242
561.2390	0.3091
561.5150	0.1875
561.7910	0.0910
562.0670	0.1236
562.3420	0.1607
562.6180	0.1242
562.8940	0.0665
563.1700	0.1730
563.4460	0.1589
563.7210	0.0770
563.9970	0.0833
564.2730	0.1333
564.5490	0.1812
564.8250	0.1606
565.1000	0.2624
565.3760	0.2017
565.6520	0.1503
565.9280	0.1881
566.2040	0.1177
566.4790	0.1396
566.7550	0.1488
567.0310	0.1255
567.3070	0.0932
567.5830	0.1650
567.8580	0.1533
568.1340	0.1107
568.4100	0.0799
568.6860	0.1469
568.9620	0.1398
569.2370	0.2160
569.5130	0.1363
569.7890	0.1464
570.0650	0.1367
570.3410	0.1164
570.6170	0.1106
570.8920	0.1359
571.1680	0.1387
571.4440	0.1300
571.7200	0.1208
571.9960	0.1782
572.2710	0.2685
572.5470	0.1641
572.8230	0.0859
573.0990	0.1459
573.3750	0.2707
573.6500	0.1803
573.9260	0.1138
574.2020	0.1221
574.4780	0.1366
574.7540	0.1205
575.0290	0.1142
575.3050	0.1886
575.5810	0.1466
575.8570	0.0973
576.1330	0.0870
576.4080	0.1255
576.6840	0.1704
576.9600	0.1563
577.2390	0.1125
577.5170	0.1030
577.7960	0.1446
578.0750	0.1940
578.3540	0.1208
578.6320	0.1010
578.9110	0.1868
579.1900	0.2772
579.4690	0.1947
579.7470	0.1501
580.0260	0.1544
580.3050	0.1135
580.5840	0.1659
580.8620	0.1411
581.1410	0.1531
581.4200	0.1430
581.6990	0.1266
581.9770	0.1632
582.2560	0.1573
582.5350	0.1953
582.8140	0.1569
583.0920	0.1648
583.3710	0.1598
583.6500	0.1519
583.9290	0.1409
584.2070	0.1216
584.4860	0.1734
584.7650	0.1862
585.0430	0.1072
585.3220	0.1881
585.6010	0.2067
585.8800	0.1594
586.1580	0.1094
586.4370	0.1030
586.7160	0.1388
586.9950	0.1652
587.2730	0.1300
587.5520	0.1302
587.8310	0.1603
588.1100	0.1805
588.3880	0.1106
588.6670	0.0863
588.9460	0.0934
589.2250	0.0650
589.5030	0.0622
589.7820	0.0849
590.0610	0.1043
590.3400	0.1594
590.6180	0.2475
590.8970	0.3042
591.1760	0.2118
591.4550	0.1331
591.7330	0.1281
592.0120	0.1683
592.2910	0.2293
592.5700	0.1641
592.8480	0.1953
593.1270	0.1404
593.4060	0.1371
593.6840	0.1027
593.9630	0.1186
594.2420	0.1442
594.5210	0.1251
594.7990	0.1390
595.0780	0.1358
595.3570	0.1261
595.6360	0.1268
595.9140	0.1345
596.1930	0.1110
596.4720	0.1199
596.7510	0.1497
597.0290	0.1657
597.3080	0.1616
597.5870	0.1185
597.8660	0.1271
598.1440	0.0945
598.4230	0.0817
598.7020	0.1164
598.9810	0.1478
599.2590	0.2004
599.5380	0.1609
599.8170	0.1127
