199.8780	0.0125
200.1320	0.0195
200.3850	0.0005
200.6390	0.0050
200.8920	0.0151
201.1460	0.0083
201.4000	0.0050
201.6530	0.0065
201.9070	0.0124
202.1610	-0.0002
202.4140	-0.0030
202.6680	0.0177
202.9220	0.0138
203.1750	0.0111
203.4290	0.0028
203.6830	0.0182
203.9360	0.0290
204.1900	0.0144
204.4430	0.0378
204.6970	0.0457
204.9510	0.0168
205.2040	0.0043
205.4580	0.0135
205.7120	0.0253
205.9650	0.0128
206.2190	0.0130
206.4730	0.0153
206.7260	0.0104
206.9800	0.0214
207.2330	0.0078
207.4870	-0.0043
207.7410	0.0095
207.9940	0.0184
208.2480	0.0182
208.5020	0.0086
208.7550	0.0115
209.0090	0.0294
209.2630	0.0355
209.5160	0.0122
209.7700	0.0032
210.0240	0.0124
210.2770	0.0117
210.5310	0.0019
210.7840	-0.0028
211.0380	0.0017
211.2920	-0.0045
211.5450	-0.0009
211.7990	0.0268
212.0530	0.0412
212.3060	0.0316
212.5600	0.0091
212.8140	0.0049
213.0670	0.0067
213.3210	0.0111
213.5750	0.0119
213.8280	0.0212
214.0820	0.0384
214.3350	0.0182
214.5890	0.0075
214.8430	0.0097
215.0960	0.0326
215.3500	0.0241
215.6040	0.0193
215.8570	0.0088
216.1110	0.0140
216.3650	0.0055
216.6180	0.0031
216.8720	0.0104
217.1260	0.0048
217.3790	0.0205
217.6330	0.0081
217.8860	0.0117
218.1400	0.0120
218.3940	0.0048
218.6470	0.0041
218.9010	0.0035
219.1550	0.0121
219.4080	0.0008
219.6620	-0.0048
219.9160	0.0109
220.1690	0.0212
220.4230	0.0191
220.6770	0.0173
220.9300	0.0049
221.1840	-0.0005
221.4370	-0.0052
221.6910	-0.0042
221.9450	0.0027
222.1980	0.0076
222.4520	0.0135
222.7060	0.0226
222.9590	0.0187
223.2130	0.0217
223.4670	0.0162
223.7200	0.0194
223.9740	0.0200
224.2280	0.0089
224.4810	0.0155
224.7350	0.0100
224.9880	0.0153
225.2420	0.0275
225.4960	0.0196
225.7490	0.0350
226.0030	0.0352
226.2570	0.0176
226.5100	0.0025
226.7640	0.0205
227.0180	0.0243
227.2710	0.0252
227.5250	0.0161
227.7790	0.0069
228.0320	0.0192
228.2860	0.0352
228.5390	0.0225
228.7930	0.0072
229.0470	0.0168
229.3000	0.0447
229.5540	0.0458
229.8080	0.0213
230.0610	0.0221
230.3150	0.0276
230.5690	0.0067
230.8220	0.0076
231.0760	0.0160
231.3300	0.0139
231.5830	0.0182
231.8370	0.0054
232.0900	0.0046
232.3440	0.0089
232.5980	0.0134
232.8510	0.0217
233.1050	0.0149
233.3590	0.0422
233.6120	0.0228
233.8660	0.0112
234.1200	0.0142
234.3730	0.0352
234.6270	0.0278
234.8800	0.0034
235.1340	0.0074
235.3880	0.0320
235.6410	0.0164
235.8950	0.0006
236.1490	0.0064
236.4020	0.0161
236.6560	0.0206
236.9100	0.0021
237.1630	0.0160
237.4170	0.0144
237.6710	-0.0030
237.9240	0.0086
238.1780	0.0184
238.4310	0.0146
238.6850	0.0078
238.9390	0.0153
239.1920	0.0090
239.4460	0.0296
239.7000	0.0227
239.9530	0.0003
240.2070	0.0222
240.4610	0.0256
240.7140	0.0148
240.9680	0.0101
241.2220	0.0083
241.4750	0.0102
241.7290	0.0041
241.9820	0.0079
242.2360	0.0264
242.4900	0.0205
242.7430	0.0140
242.9970	0.0303
243.2510	0.0140
243.5040	0.0154
243.7580	0.0028
244.0120	0.0069
244.2650	0.0488
244.5190	0.0408
244.7730	0.0120
245.0260	0.0102
245.2800	0.0158
245.5330	0.0286
245.7870	0.0154
246.0410	0.0150
246.2940	0.0313
246.5480	0.0220
246.8020	0.0139
247.0550	0.0193
247.3090	0.0367
247.5630	0.0332
247.8160	0.0234
248.0700	0.0244
248.3240	0.0432
248.5770	0.0213
248.8310	0.0029
249.0840	0.0148
249.3380	0.0179
249.5920	0.0239
249.8450	0.0090
250.0990	0.0213
250.3530	0.0330
250.6060	0.0197
250.8600	0.0043
251.1140	-0.0019
251.3670	0.0362
251.6210	0.0311
251.8750	0.0178
252.1280	0.0221
252.3820	0.0267
252.6350	0.0252
252.8890	0.0184
253.1430	0.0060
253.3960	0.0195
253.6500	0.0308
253.9040	0.0150
254.1590	0.0021
254.4130	0.0213
254.6670	0.0388
254.9220	0.0416
255.1760	0.0417
255.4310	0.0189
255.6850	0.0198
255.9390	0.0256
256.1940	0.0070
256.4480	0.0066
256.7020	0.0141
256.9570	0.0208
257.2110	0.0208
257.4650	0.0273
257.7200	0.0656
257.9740	0.0416
258.2280	0.0274
258.4830	0.0153
258.7370	0.0121
258.9920	0.0173
259.2460	0.0168
259.5000	0.0181
259.7550	0.0309
260.0090	0.0316
260.2630	0.0161
260.5180	0.0250
260.7720	0.0239
261.0260	0.0107
261.2810	0.0067
261.5350	0.0107
261.7890	0.0150
262.0440	0.0073
262.2980	0.0318
262.5530	0.0300
262.8070	0.0145
263.0610	0.0062
263.3160	0.0186
263.5700	0.0306
263.8240	0.0144
264.0790	0.0103
264.3330	0.0058
264.5870	0.0051
264.8420	0.0426
265.0960	0.0329
265.3510	0.0388
265.6050	0.0403
265.8590	0.0247
266.1140	0.0157
266.3680	0.0222
266.6220	0.0221
266.8770	0.0254
267.1310	0.0201
267.3850	0.0283
267.6400	0.0202
267.8940	0.0174
268.1480	0.0082
268.4030	0.0153
268.6570	0.0174
268.9120	0.0103
269.1660	0.0056
269.4200	0.0172
269.6750	0.0272
269.9290	0.0251
270.1830	0.0259
270.4380	0.0254
270.6920	0.0246
270.9460	0.0218
271.2010	0.0450
271.4550	0.0201
271.7090	0.0071
271.9640	0.0175
272.2180	0.0078
272.4730	0.0002
272.7270	0.0218
272.9810	0.0326
273.2360	0.0133
273.4900	0.0117
273.7440	0.0234
273.9990	0.0314
274.2530	0.0145
274.5070	0.0062
274.7620	0.0150
275.0160	0.0184
275.2710	0.0241
275.5250	0.0188
275.7790	0.0136
276.0340	0.0128
276.2880	0.0118
276.5420	0.0225
276.7970	0.0308
277.0510	0.0301
277.3050	0.0408
277.5600	0.0237
277.8140	0.0180
278.0680	0.0334
278.3230	0.0177
278.5770	0.0205
278.8320	0.0385
279.0860	0.0408
279.3400	0.0450
279.5950	0.0285
279.8490	0.0290
280.1030	0.0246
280.3580	0.0258
280.6120	0.0256
280.8660	0.0237
281.1210	0.0246
281.3750	0.0100
281.6290	0.0060
281.8840	0.0290
282.1380	0.0425
282.3930	0.0316
282.6470	0.0270
282.9010	0.0299
283.1560	0.0198
283.4100	0.0307
283.6640	0.0211
283.9190	0.0198
284.1730	0.0155
284.4270	0.0185
284.6820	0.0171
284.9360	0.0235
285.1910	0.0272
285.4450	0.0275
285.6990	0.0195
285.9540	0.0107
286.2080	0.0244
286.4620	0.0322
286.7170	0.0193
286.9710	0.0412
287.2250	0.0530
287.4800	0.0179
287.7340	0.0008
287.9880	0.0260
288.2430	0.0474
288.4970	0.0193
288.7520	0.0111
289.0060	0.0382
289.2600	0.0228
289.5150	0.0150
289.7690	0.0144
290.0230	0.0262
290.2780	0.0308
290.5320	0.0294
290.7860	0.0207
291.0410	0.0368
291.2950	0.0406
291.5490	0.0174
291.8040	0.0173
292.0580	0.0269
292.3130	0.0204
292.5670	0.0176
292.8210	0.0166
293.0760	0.0303
293.3300	0.0414
293.5840	0.0491
293.8390	0.0232
294.0930	0.0120
294.3470	0.0195
294.6020	0.0255
294.8560	0.0222
295.1110	0.0117
295.3650	0.0142
295.6190	0.0261
295.8740	0.0234
296.1280	0.0255
296.3820	0.0411
296.6370	0.0414
296.8910	0.0189
297.1450	0.0267
297.4000	0.0557
297.6540	0.0449
297.9080	0.0244
298.1630	0.0217
298.4170	0.0206
298.6720	0.0112
298.9260	0.0186
299.1800	0.0269
299.4350	0.0318
299.6890	0.0200
299.9430	0.0285
300.1980	0.0382
300.4520	0.0464
300.7060	0.0414
300.9610	0.0459
301.2150	0.0353
301.4690	0.0448
301.7240	0.0345
301.9780	0.0333
302.2330	0.0419
302.4870	0.0533
302.7410	0.0529
302.9960	0.0328
303.2500	0.0433
303.5040	0.0614
303.7590	0.0421
304.0130	0.0439
304.2670	0.0626
304.5220	0.0465
304.7760	0.0333
305.0310	0.0278
305.2850	0.0269
305.5390	0.0342
305.7940	0.0240
306.0480	0.0197
306.3020	0.0548
306.5570	0.0467
306.8110	0.0413
307.0650	0.0430
307.3200	0.0508
307.5740	0.0402
307.8280	0.0259
308.0830	0.0304
308.3370	0.0327
308.5920	0.0377
308.8460	0.0499
309.1000	0.0395
309.3550	0.0606
309.6090	0.0626
309.8630	0.0411
310.1180	0.0223
310.3720	0.0367
310.6260	0.0428
310.8810	0.0325
311.1350	0.0343
311.3890	0.0458
311.6440	0.0416
311.8980	0.0287
312.1530	0.0407
312.4070	0.0562
312.6610	0.0568
312.9160	0.0369
313.1700	0.0207
313.4290	0.0403
313.6880	0.0513
313.9470	0.0404
314.2060	0.0254
314.4650	0.0354
314.7240	0.0393
314.9830	0.0457
315.2420	0.0346
315.5010	0.0334
315.7600	0.0355
316.0190	0.0454
316.2780	0.0379
316.5360	0.0291
316.7950	0.0361
317.0540	0.0444
317.3130	0.0738
317.5720	0.0554
317.8310	0.0429
318.0900	0.0279
318.3490	0.0245
318.6080	0.0541
318.8670	0.0446
319.1260	0.0480
319.3850	0.0381
319.6440	0.0531
319.9030	0.0473
320.1620	0.0278
320.4210	0.0219
320.6800	0.0227
320.9390	0.0446
321.1980	0.0308
321.4570	0.0260
321.7160	0.0293
321.9750	0.0424
322.2340	0.0470
322.4930	0.0438
322.7520	0.0516
323.0100	0.0521
323.2690	0.0485
323.5280	0.0405
323.7870	0.0353
324.0460	0.0280
324.3050	0.0357
324.5640	0.0243
324.8230	0.0259
325.0820	0.0320
325.3410	0.0348
325.6000	0.0245
325.8590	0.0166
326.1180	0.0277
326.3770	0.0315
326.6360	0.0359
326.8950	0.0590
327.1540	0.0538
327.4130	0.0232
327.6720	0.0279
327.9310	0.0519
328.1900	0.0570
328.4490	0.0503
328.7080	0.0298
328.9670	0.0256
329.2260	0.0283
329.4850	0.0395
329.7430	0.0511
330.0020	0.0577
330.2610	0.0442
330.5200	0.0357
330.7790	0.0337
331.0380	0.0353
331.2970	0.0247
331.5560	0.0104
331.8150	0.0106
332.0740	0.0193
332.3330	0.0264
332.5920	0.0272
332.8510	0.0210
333.1100	0.0213
333.3690	0.0192
333.6280	0.0136
333.8870	0.0377
334.1460	0.0413
334.4050	0.0359
334.6640	0.0342
334.9230	0.0219
335.1820	0.0265
335.4410	0.0320
335.7000	0.0354
335.9590	0.0298
336.2170	0.0203
336.4760	0.0276
336.7350	0.0363
336.9940	0.0300
337.2530	0.0415
337.5120	0.0334
337.7710	0.0318
338.0300	0.0368
338.2890	0.0451
338.5480	0.0290
338.8070	0.0261
339.0660	0.0345
339.3250	0.0245
339.5840	0.0268
339.8430	0.0287
340.1020	0.0249
340.3610	0.0279
340.6200	0.0350
340.8790	0.0388
341.1380	0.0357
341.3970	0.0274
341.6560	0.0235
341.9150	0.0210
342.1740	0.0360
342.4330	0.0318
342.6910	0.0273
342.9500	0.0275
343.2090	0.0161
343.4680	0.0346
343.7270	0.0309
343.9860	0.0193
344.2450	0.0131
344.5040	0.0323
344.7630	0.0427
345.0220	0.0375
345.2810	0.0222
345.5400	0.0183
345.7990	0.0247
346.0580	0.0282
346.3170	0.0251
346.5760	0.0394
346.8350	0.0315
347.0940	0.0143
347.3530	0.0154
347.6120	0.0187
347.8710	0.0328
348.1300	0.0348
348.3890	0.0259
348.6480	0.0327
348.9070	0.0281
349.1660	0.0161
349.4240	0.0156
349.6830	0.0229
349.9420	0.0372
350.2010	0.0333
350.4600	0.0328
350.7190	0.0378
350.9780	0.0306
351.2370	0.0194
351.4960	0.0123
351.7550	0.0255
352.0140	0.0329
352.2730	0.0203
352.5320	0.0201
352.7910	0.0361
353.0500	0.0272
353.3090	0.0125
353.5680	0.0122
353.8270	0.0237
354.0860	0.0330
354.3450	0.0380
354.6040	0.0235
354.8630	0.0293
355.1220	0.0325
355.3810	0.0334
355.6400	0.0256
355.8980	0.0555
356.1570	0.0587
356.4160	0.0340
356.6750	0.0435
356.9340	0.0421
357.1930	0.0401
357.4520	0.0396
357.7110	0.0343
357.9700	0.0372
358.2290	0.0314
358.4880	0.0351
358.7470	0.0187
359.0060	0.0257
359.2650	0.0406
359.5240	0.0230
359.7830	0.0204
360.0420	0.0216
360.3010	0.0435
360.5600	0.0298
360.8190	0.0235
361.0780	0.0210
361.3370	0.0281
361.5960	0.0318
361.8550	0.0216
362.1140	0.0324
362.3720	0.0396
362.6310	0.0225
362.8900	0.0262
363.1490	0.0308
363.4080	0.0460
363.6670	0.0371
363.9260	0.0232
364.1850	0.0244
364.4440	0.0268
364.7030	0.0180
364.9620	0.0309
365.2210	0.0538
365.4800	0.0422
365.7390	0.0411
365.9990	0.0394
366.2580	0.0306
366.5180	0.0271
366.7770	0.0183
367.0370	0.0402
367.2960	0.0347
367.5560	0.0347
367.8150	0.0374
368.0750	0.0421
368.3340	0.0370
368.5940	0.0315
368.8530	0.0388
369.1130	0.0302
369.3720	0.0238
369.6320	0.0413
369.8910	0.0366
370.1500	0.0212
370.4100	0.0387
370.6690	0.0456
370.9290	0.0215
371.1880	0.0172
371.4480	0.0294
371.7070	0.0477
371.9670	0.0295
372.2260	0.0221
372.4860	0.0559
372.7450	0.0479
373.0050	0.0433
373.2640	0.0237
373.5240	0.0251
373.7830	0.0246
374.0430	0.0424
374.3020	0.0326
374.5610	0.0429
374.8210	0.0333
375.0800	0.0300
375.3400	0.0454
375.5990	0.0422
375.8590	0.0449
376.1180	0.0320
376.3780	0.0236
376.6370	0.0453
376.8970	0.0438
377.1560	0.0261
377.4160	0.0245
377.6750	0.0222
377.9350	0.0347
378.1940	0.0405
378.4540	0.0403
378.7130	0.0432
378.9720	0.0387
379.2320	0.0328
379.4910	0.0316
379.7510	0.0328
380.0100	0.0405
380.2700	0.0305
380.5290	0.0249
380.7890	0.0387
381.0480	0.0413
381.3080	0.0323
381.5670	0.0274
381.8270	0.0309
382.0860	0.0227
382.3460	0.0248
382.6050	0.0184
382.8650	0.0299
383.1240	0.0436
383.3830	0.0376
383.6430	0.0496
383.9020	0.0455
384.1620	0.0323
384.4210	0.0179
384.6810	0.0463
384.9400	0.0706
385.2000	0.0535
385.4590	0.0414
385.7190	0.0298
385.9780	0.0237
386.2380	0.0348
386.4970	0.0316
386.7570	0.0174
387.0160	0.0390
387.2760	0.0513
387.5350	0.0411
387.7940	0.0436
388.0540	0.0393
388.3130	0.0448
388.5730	0.0300
388.8320	0.0274
389.0920	0.0319
389.3510	0.0324
389.6110	0.0336
389.8700	0.0395
390.1300	0.0551
390.3890	0.0527
390.6490	0.0326
390.9080	0.0180
391.1680	0.0338
391.4270	0.0562
391.6860	0.0568
391.9460	0.0367
392.2050	0.0419
392.4650	0.0526
392.7240	0.0346
392.9840	0.0453
393.2430	0.0560
393.5030	0.0505
393.7620	0.0432
394.0220	0.0297
394.2810	0.0256
394.5410	0.0291
394.8000	0.0380
395.0600	0.0345
395.3190	0.0403
395.5790	0.0316
395.8380	0.0239
396.0970	0.0362
396.3570	0.0605
396.6160	0.0412
396.8760	0.0265
397.1350	0.0235
397.3950	0.0201
397.6540	0.0313
397.9140	0.0720
398.1730	0.0619
398.4330	0.0545
398.6920	0.0545
398.9520	0.0503
399.2110	0.0341
399.4710	0.0488
399.7300	0.0419
399.9900	0.0437
400.2490	0.0358
400.5080	0.0305
400.7680	0.0291
401.0270	0.0309
401.2870	0.0436
401.5460	0.0431
401.8060	0.0435
402.0650	0.0706
402.3250	0.0494
402.5840	0.0624
402.8440	0.0484
403.1030	0.0316
403.3630	0.0700
403.6220	0.0486
403.8820	0.0377
404.1410	0.0399
404.4010	0.0696
404.6600	0.0537
404.9260	0.0353
405.1930	0.0379
405.4590	0.0370
405.7260	0.0275
405.9920	0.0225
406.2590	0.0260
406.5250	0.0240
406.7920	0.0442
407.0580	0.0427
407.3250	0.0237
407.5910	0.0332
407.8580	0.0456
408.1240	0.0500
408.3910	0.0323
408.6570	0.0284
408.9240	0.0339
409.1900	0.0391
409.4570	0.0582
409.7230	0.0444
409.9900	0.0460
410.2560	0.0607
410.5230	0.0350
410.7890	0.0266
411.0560	0.0369
411.3220	0.0317
411.5890	0.0219
411.8550	0.0379
412.1220	0.0413
412.3880	0.0336
412.6550	0.0216
412.9210	0.0190
413.1880	0.0417
413.4540	0.0661
413.7210	0.0346
413.9870	0.0293
414.2540	0.0383
414.5200	0.0341
414.7870	0.0231
415.0530	0.0369
415.3200	0.0435
415.5860	0.0441
415.8530	0.0374
416.1190	0.0319
416.3860	0.0363
416.6520	0.0283
416.9190	0.0321
417.1850	0.0233
417.4520	0.0413
417.7180	0.0601
417.9850	0.0434
418.2510	0.0293
418.5180	0.0371
418.7840	0.0299
419.0510	0.0281
419.3170	0.0310
419.5840	0.0380
419.8500	0.0412
420.1170	0.0324
420.3830	0.0214
420.6500	0.0229
420.9160	0.0347
421.1830	0.0236
421.4490	0.0302
421.7160	0.0402
421.9820	0.0456
422.2490	0.0352
422.5150	0.0479
422.7820	0.0534
423.0480	0.0475
423.3150	0.0550
423.5810	0.0449
423.8480	0.0623
424.1140	0.0681
424.3810	0.0385
424.6470	0.0425
424.9140	0.0505
425.1800	0.0413
425.4470	0.0397
425.7130	0.0491
425.9800	0.0706
426.2460	0.0818
426.5130	0.0495
426.7790	0.0222
427.0460	0.0279
427.3120	0.0447
427.5790	0.0315
427.8450	0.0322
428.1120	0.0410
428.3780	0.0505
428.6450	0.0919
428.9110	0.0499
429.1780	0.0343
429.4440	0.0360
429.7110	0.0332
429.9770	0.0208
430.2440	0.0374
430.5100	0.0400
430.7770	0.0406
431.0430	0.0476
431.3100	0.0455
431.5760	0.0359
431.8430	0.0548
432.1090	0.0477
432.3760	0.0407
432.6420	0.0569
432.9090	0.0440
433.1750	0.0284
433.4420	0.0285
433.7080	0.0632
433.9750	0.0789
434.2410	0.0577
434.5080	0.0517
434.7740	0.0435
435.0410	0.0450
435.3070	0.0315
435.5740	0.0386
435.8400	0.0503
436.1100	0.0655
436.3790	0.0550
436.6490	0.0517
436.9180	0.0554
437.1880	0.0623
437.4570	0.0514
437.7270	0.0352
437.9960	0.0409
438.2660	0.0309
438.5350	0.0377
438.8050	0.0520
439.0740	0.0511
439.3440	0.0459
439.6130	0.0491
439.8830	0.0330
440.1520	0.0390
440.4220	0.0470
440.6910	0.0462
440.9610	0.0414
441.2300	0.0388
441.5000	0.0425
441.7690	0.0348
442.0390	0.0282
442.3080	0.0338
442.5780	0.0501
442.8470	0.0457
443.1170	0.0580
443.3860	0.0415
443.6560	0.0332
443.9250	0.0283
444.1950	0.0581
444.4640	0.0585
444.7340	0.0362
445.0030	0.0279
445.2730	0.0391
445.5420	0.0542
445.8120	0.0453
446.0810	0.0498
446.3510	0.0555
446.6200	0.0466
446.8900	0.0393
447.1590	0.0321
447.4290	0.0447
447.6980	0.0656
447.9680	0.0434
448.2380	0.0452
448.5070	0.0506
448.7770	0.0446
449.0460	0.0357
449.3160	0.0475
449.5850	0.0543
449.8550	0.0537
450.1240	0.0495
450.3940	0.0428
450.6630	0.0431
450.9330	0.0440
451.2020	0.0346
451.4720	0.0415
451.7410	0.0563
452.0110	0.0455
452.2800	0.0269
452.5500	0.0321
452.8190	0.0347
453.0890	0.0491
453.3580	0.0399
453.6280	0.0333
453.8970	0.0405
454.1670	0.0497
454.4360	0.0442
454.7060	0.0359
454.9750	0.0348
455.2450	0.0412
455.5140	0.0463
455.7840	0.0287
456.0530	0.0384
456.3230	0.0364
456.5920	0.0295
456.8620	0.0441
457.1310	0.0520
457.4010	0.0475
457.6700	0.0294
457.9400	0.0426
458.2090	0.0377
458.4790	0.0355
458.7480	0.0351
459.0180	0.0216
459.2870	0.0344
459.5570	0.0413
459.8260	0.0755
460.0960	0.0994
460.3660	0.0776
460.6350	0.0520
460.9050	0.0544
461.1740	0.0339
461.4440	0.0342
461.7130	0.0366
461.9830	0.0266
462.2520	0.0191
462.5220	0.0350
462.7910	0.0371
463.0610	0.0270
463.3300	0.0521
463.6000	0.0554
463.8690	0.0457
464.1390	0.0267
464.4080	0.0200
464.6780	0.0292
464.9470	0.0375
465.2170	0.0416
465.4860	0.0404
465.7560	0.0372
466.0250	0.0481
466.2950	0.0358
466.5640	0.0412
466.8340	0.0504
467.1030	0.0699
467.3730	0.0447
467.6420	0.0313
467.9120	0.0314
468.1810	0.0375
468.4510	0.0274
468.7200	0.0301
468.9900	0.0377
469.2590	0.0622
469.5290	0.0615
469.7980	0.0329
470.0680	0.0307
470.3370	0.0372
470.6070	0.0259
470.8760	0.0296
471.1460	0.0496
471.4150	0.0544
471.6850	0.0427
471.9540	0.0386
472.2240	0.0383
472.4930	0.0378
472.7630	0.0391
473.0330	0.0537
473.3020	0.0756
473.5720	0.0473
473.8410	0.0223
474.1110	0.0299
474.3800	0.0324
474.6500	0.0346
474.9190	0.0394
475.1890	0.0276
475.4580	0.0329
475.7280	0.0402
475.9970	0.0609
476.2670	0.0479
476.5360	0.0389
476.8060	0.0448
477.0750	0.0303
477.3450	0.0417
477.6140	0.0407
477.8840	0.0622
478.1530	0.0447
478.4230	0.0284
478.6920	0.0374
478.9620	0.0363
479.2310	0.0224
479.5010	0.0257
479.7700	0.0465
480.0400	0.0591
480.3090	0.0339
480.5790	0.0203
480.8480	0.0249
481.1180	0.0548
481.3870	0.0450
481.6570	0.0449
481.9260	0.0388
482.1960	0.0319
482.4650	0.0258
482.7350	0.0326
483.0040	0.0414
483.2740	0.0372
483.5430	0.0359
483.8130	0.0220
484.0820	0.0284
484.3520	0.0390
484.6210	0.0274
484.8910	0.0254
485.1610	0.0326
485.4300	0.0585
485.7000	0.0365
485.9690	0.0282
486.2390	0.0347
486.5080	0.0478
486.7780	0.0405
487.0470	0.0297
487.3170	0.0272
487.5860	0.0341
487.8560	0.0296
488.1250	0.0346
488.3950	0.0271
488.6640	0.0275
488.9340	0.0393
489.2030	0.0293
489.4730	0.0247
489.7420	0.0313
490.0120	0.0241
490.2810	0.0208
490.5510	0.0318
490.8200	0.0426
491.0900	0.0561
491.3590	0.0407
491.6290	0.0311
491.8980	0.0511
492.1680	0.0455
492.4370	0.0234
492.7070	0.0246
492.9760	0.0547
493.2460	0.0348
493.5150	0.0291
493.7850	0.0454
494.0540	0.0553
494.3240	0.0449
494.5930	0.0234
494.8630	0.0221
495.1320	0.0367
495.4020	0.0579
495.6710	0.0392
495.9410	0.0297
496.2100	0.0449
496.4800	0.0404
496.7490	0.0464
497.0190	0.0485
497.2890	0.0501
497.5580	0.0333
497.8280	0.0328
498.0970	0.0362
498.3670	0.0483
498.6360	0.0448
498.9060	0.0274
499.1750	0.0246
499.4450	0.0324
499.7140	0.0254
499.9840	0.0222
500.2530	0.0246
500.5230	0.0367
500.7920	0.0327
501.0620	0.0299
501.3310	0.0476
501.6010	0.0505
501.8700	0.0439
502.1400	0.0354
502.4090	0.0289
502.6790	0.0290
502.9480	0.0342
503.2180	0.0353
503.4870	0.0695
503.7570	0.0455
504.0260	0.0327
504.2960	0.0350
504.5650	0.0467
504.8350	0.0407
505.1040	0.0340
505.3740	0.0468
505.6430	0.0359
505.9130	0.0635
506.1820	0.0593
506.4520	0.0396
506.7210	0.0714
506.9910	0.0645
507.2600	0.0323
507.5300	0.0358
507.7990	0.0323
508.0690	0.0272
508.3380	0.0384
508.6080	0.0349
508.8770	0.0400
509.1470	0.0483
509.4160	0.0418
509.6860	0.0274
509.9560	0.0491
510.2250	0.0556
510.4950	0.0335
510.7640	0.0263
511.0340	0.0380
511.3030	0.0429
511.5730	0.0331
511.8420	0.0225
512.1120	0.0398
512.3810	0.0445
512.6510	0.0289
512.9200	0.0224
513.1900	0.0355
513.4590	0.0305
513.7290	0.0295
513.9980	0.0429
514.2680	0.0489
514.5370	0.1026
514.8070	0.0777
515.0760	0.0396
515.3460	0.0357
515.6150	0.0264
515.8850	0.0361
516.1540	0.0472
516.4240	0.0412
516.6930	0.0393
516.9630	0.0317
517.2320	0.0346
517.5020	0.0331
517.7710	0.0257
518.0410	0.0333
518.3100	0.0386
518.5800	0.0326
518.8490	0.0501
519.1190	0.0398
519.3880	0.0330
519.6580	0.0476
519.9270	0.0359
520.1970	0.0219
520.4660	0.0187
520.7360	0.0249
521.0050	0.0377
521.2750	0.0305
521.5440	0.0405
521.8140	0.0302
522.0840	0.0369
522.3530	0.0410
522.6230	0.0237
522.8920	0.0338
523.1620	0.0408
523.4310	0.0448
523.7010	0.0378
523.9700	0.0325
524.2400	0.0256
524.5090	0.0286
524.7790	0.0214
525.0480	0.0176
525.3180	0.0375
525.5870	0.0262
525.8570	0.0207
526.1260	0.0450
526.3960	0.0420
526.6650	0.0288
526.9350	0.0260
527.2040	0.0266
527.4740	0.0329
527.7430	0.0306
528.0130	0.0196
528.2820	0.0254
528.5520	0.0314
528.8210	0.0340
529.0910	0.0360
529.3600	0.0276
529.6300	0.0295
529.8990	0.0293
530.1690	0.0293
530.4380	0.0434
530.7080	0.0377
530.9770	0.0327
531.2470	0.0339
531.5160	0.0521
531.7860	0.0436
532.0550	0.0255
532.3250	0.0209
532.5940	0.0334
532.8640	0.0396
533.1330	0.0328
533.4030	0.0217
533.6720	0.0271
533.9420	0.0451
534.2120	0.0277
534.4810	0.0166
534.7510	0.0288
535.0200	0.0700
535.2900	0.0409
535.5590	0.0207
535.8290	0.0324
536.0980	0.0511
536.3680	0.0433
536.6370	0.0325
536.9070	0.0469
537.1760	0.0467
537.4460	0.0412
537.7150	0.0335
537.9850	0.0329
538.2540	0.0375
538.5240	0.0384
538.7930	0.0435
539.0630	0.0339
539.3320	0.0418
539.6020	0.0430
539.8710	0.0361
540.1410	0.0412
540.4100	0.0504
540.6800	0.0346
540.9490	0.0325
541.2190	0.0390
541.4880	0.0583
541.7580	0.0589
542.0270	0.0390
542.2970	0.0329
542.5660	0.0378
542.8360	0.0242
543.1050	0.0230
543.3750	0.0310
543.6440	0.0313
543.9140	0.0254
544.1830	0.0239
544.4530	0.0381
544.7220	0.0336
544.9920	0.0204
545.2610	0.0281
545.5310	0.0360
545.8000	0.0352
546.0700	0.0309
546.3460	0.0256
546.6220	0.0282
546.8970	0.0276
547.1730	0.0349
547.4490	0.0258
547.7250	0.0417
548.0010	0.0403
548.2760	0.0368
548.5520	0.0339
548.8280	0.0323
549.1040	0.0366
549.3800	0.0345
549.6550	0.0405
549.9310	0.0473
550.2070	0.0577
550.4830	0.0358
550.7590	0.0268
551.0340	0.0270
551.3100	0.0387
551.5860	0.0312
551.8620	0.0440
552.1380	0.0367
552.4130	0.0276
552.6890	0.0200
552.9650	0.0208
553.2410	0.0231
553.5170	0.0320
553.7930	0.0265
554.0680	0.0236
554.3440	0.0275
554.6200	0.0444
554.8960	0.0304
555.1720	0.0202
555.4470	0.0322
555.7230	0.0311
555.9990	0.0251
556.2750	0.0257
556.5510	0.0400
556.8260	0.0336
557.1020	0.0250
557.3780	0.0375
557.6540	0.0370
557.9300	0.0295
558.2050	0.0284
558.4810	0.0229
558.7570	0.0280
559.0330	0.0273
559.3090	0.0432
559.5840	0.0444
559.8600	0.0404
560.1360	0.0330
560.4120	0.0284
560.6880	0.0265
560.9630	0.0289
561.2390	0.0706
561.5150	0.0433
561.7910	0.0226
562.0670	0.0288
562.3420	0.0374
562.6180	0.0295
562.8940	0.0158
563.1700	0.0395
563.4460	0.0357
563.7210	0.0177
563.9970	0.0199
564.2730	0.0301
564.5490	0.0406
564.8250	0.0363
565.1000	0.0595
565.3760	0.0468
565.6520	0.0352
565.9280	0.0427
566.2040	0.0265
566.4790	0.0312
566.7550	0.0328
567.0310	0.0288
567.3070	0.0220
567.5830	0.0398
567.8580	0.0362
568.1340	0.0260
568.4100	0.0191
568.6860	0.0347
568.9620	0.0321
569.2370	0.0469
569.5130	0.0303
569.7890	0.0333
570.0650	0.0310
570.3410	0.0269
570.6170	0.0257
570.8920	0.0318
571.1680	0.0316
571.4440	0.0292
571.7200	0.0281
571.9960	0.0413
572.2710	0.0622
572.5470	0.0378
572.8230	0.0194
573.0990	0.0335
573.3750	0.0633
573.6500	0.0415
573.9260	0.0262
574.2020	0.0282
574.4780	0.0309
574.7540	0.0270
575.0290	0.0260
575.3050	0.0435
575.5810	0.0340
575.8570	0.0225
576.1330	0.0196
576.4080	0.0297
576.6840	0.0395
576.9600	0.0365
577.2390	0.0270
577.5170	0.0238
577.7960	0.0333
578.0750	0.0455
578.3540	0.0283
578.6320	0.0232
578.9110	0.0429
579.1900	0.0637
579.4690	0.0448
579.7470	0.0350
580.0260	0.0354
580.3050	0.0265
580.5840	0.0389
580.8620	0.0323
581.1410	0.0352
581.4200	0.0334
581.6990	0.0291
581.9770	0.0385
582.2560	0.0362
582.5350	0.0447
582.8140	0.0354
583.0920	0.0377
583.3710	0.0364
583.6500	0.0343
583.9290	0.0320
584.2070	0.0272
584.4860	0.0385
584.7650	0.0414
585.0430	0.0241
585.3220	0.0437
585.6010	0.0486
585.8800	0.0377
586.1580	0.0251
586.4370	0.0241
586.7160	0.0326
586.9950	0.0376
587.2730	0.0296
587.5520	0.0309
587.8310	0.0370
588.1100	0.0413
588.3880	0.0249
588.6670	0.0195
588.9460	0.0219
589.2250	0.0156
589.5030	0.0148
589.7820	0.0197
590.0610	0.0246
590.3400	0.0373
590.6180	0.0571
590.8970	0.0687
591.1760	0.0482
591.4550	0.0306
591.7330	0.0291
592.0120	0.0385
592.2910	0.0518
592.5700	0.0341
592.8480	0.0438
593.1270	0.0325
593.4060	0.0312
593.6840	0.0233
593.9630	0.0270
594.2420	0.0319
594.5210	0.0282
594.7990	0.0326
595.0780	0.0327
595.3570	0.0288
595.6360	0.0285
595.9140	0.0299
596.1930	0.0249
596.4720	0.0270
596.7510	0.0346
597.0290	0.0385
597.3080	0.0370
597.5870	0.0269
597.8660	0.0284
598.1440	0.0211
598.4230	0.0179
598.7020	0.0260
598.9810	0.0335
599.2590	0.0460
599.5380	0.0377
599.8170	0.0264
