199.8780	0.0176
200.1320	0.0262
200.3850	0.0005
200.6390	0.0061
200.8920	0.0217
201.1460	0.0111
201.4000	0.0079
201.6530	0.0091
201.9070	0.0172
202.1610	-0.0003
202.4140	-0.0045
202.6680	0.0245
202.9220	0.0189
203.1750	0.0154
203.4290	0.0043
203.6830	0.0263
203.9360	0.0425
204.1900	0.0212
204.4430	0.0552
204.6970	0.0656
204.9510	0.0247
205.2040	0.0054
205.4580	0.0168
205.7120	0.0350
205.9650	0.0180
206.2190	0.0176
206.4730	0.0206
206.7260	0.0150
206.9800	0.0331
207.2330	0.0136
207.4870	-0.0059
207.7410	0.0135
207.9940	0.0272
208.2480	0.0265
208.5020	0.0123
208.7550	0.0161
209.0090	0.0419
209.2630	0.0511
209.5160	0.0171
209.7700	0.0039
210.0240	0.0179
210.2770	0.0169
210.5310	0.0025
210.7840	-0.0041
211.0380	0.0015
211.2920	-0.0073
211.5450	-0.0022
211.7990	0.0384
212.0530	0.0585
212.3060	0.0462
212.5600	0.0134
212.8140	0.0073
213.0670	0.0098
213.3210	0.0160
213.5750	0.0177
213.8280	0.0289
214.0820	0.0547
214.3350	0.0278
214.5890	0.0123
214.8430	0.0156
215.0960	0.0484
215.3500	0.0346
215.6040	0.0276
215.8570	0.0124
216.1110	0.0190
216.3650	0.0062
216.6180	0.0036
216.8720	0.0131
217.1260	0.0062
217.3790	0.0281
217.6330	0.0109
217.8860	0.0162
218.1400	0.0162
218.3940	0.0057
218.6470	0.0031
218.9010	0.0038
219.1550	0.0156
219.4080	0.0004
219.6620	-0.0077
219.9160	0.0145
220.1690	0.0308
220.4230	0.0269
220.6770	0.0245
220.9300	0.0068
221.1840	-0.0007
221.4370	-0.0070
221.6910	-0.0061
221.9450	0.0048
222.1980	0.0104
222.4520	0.0196
222.7060	0.0332
222.9590	0.0269
223.2130	0.0311
223.4670	0.0221
223.7200	0.0262
223.9740	0.0288
224.2280	0.0128
224.4810	0.0204
224.7350	0.0141
224.9880	0.0232
225.2420	0.0409
225.4960	0.0282
225.7490	0.0504
226.0030	0.0500
226.2570	0.0239
226.5100	0.0024
226.7640	0.0270
227.0180	0.0340
227.2710	0.0350
227.5250	0.0223
227.7790	0.0087
228.0320	0.0252
228.2860	0.0497
228.5390	0.0314
228.7930	0.0092
229.0470	0.0228
229.3000	0.0645
229.5540	0.0655
229.8080	0.0298
230.0610	0.0324
230.3150	0.0393
230.5690	0.0094
230.8220	0.0118
231.0760	0.0224
231.3300	0.0187
231.5830	0.0250
231.8370	0.0069
232.0900	0.0065
232.3440	0.0135
232.5980	0.0190
232.8510	0.0316
233.1050	0.0220
233.3590	0.0619
233.6120	0.0320
233.8660	0.0146
234.1200	0.0211
234.3730	0.0510
234.6270	0.0402
234.8800	0.0055
235.1340	0.0113
235.3880	0.0461
235.6410	0.0226
235.8950	0.0004
236.1490	0.0096
236.4020	0.0235
236.6560	0.0308
236.9100	0.0035
237.1630	0.0231
237.4170	0.0212
237.6710	-0.0029
237.9240	0.0126
238.1780	0.0263
238.4310	0.0211
238.6850	0.0107
238.9390	0.0210
239.1920	0.0133
239.4460	0.0428
239.7000	0.0311
239.9530	-0.0008
240.2070	0.0310
240.4610	0.0363
240.7140	0.0213
240.9680	0.0139
241.2220	0.0113
241.4750	0.0142
241.7290	0.0049
241.9820	0.0127
242.2360	0.0381
242.4900	0.0295
242.7430	0.0200
242.9970	0.0417
243.2510	0.0198
243.5040	0.0217
243.7580	0.0043
244.0120	0.0101
244.2650	0.0697
244.5190	0.0589
244.7730	0.0171
245.0260	0.0145
245.2800	0.0218
245.5330	0.0398
245.7870	0.0216
246.0410	0.0212
246.2940	0.0443
246.5480	0.0298
246.8020	0.0189
247.0550	0.0267
247.3090	0.0508
247.5630	0.0468
247.8160	0.0320
248.0700	0.0343
248.3240	0.0623
248.5770	0.0310
248.8310	0.0040
249.0840	0.0210
249.3380	0.0248
249.5920	0.0346
249.8450	0.0128
250.0990	0.0321
250.3530	0.0492
250.6060	0.0295
250.8600	0.0054
251.1140	-0.0045
251.3670	0.0506
251.6210	0.0443
251.8750	0.0244
252.1280	0.0317
252.3820	0.0388
252.6350	0.0346
252.8890	0.0255
253.1430	0.0081
253.3960	0.0268
253.6500	0.0456
253.9040	0.0224
254.1590	0.0028
254.4130	0.0302
254.6670	0.0562
254.9220	0.0586
255.1760	0.0595
255.4310	0.0284
255.6850	0.0295
255.9390	0.0372
256.1940	0.0102
256.4480	0.0089
256.7020	0.0188
256.9570	0.0282
257.2110	0.0299
257.4650	0.0415
257.7200	0.0962
257.9740	0.0603
258.2280	0.0397
258.4830	0.0221
258.7370	0.0174
258.9920	0.0237
259.2460	0.0228
259.5000	0.0266
259.7550	0.0449
260.0090	0.0450
260.2630	0.0235
260.5180	0.0364
260.7720	0.0343
261.0260	0.0144
261.2810	0.0094
261.5350	0.0151
261.7890	0.0200
262.0440	0.0082
262.2980	0.0456
262.5530	0.0422
262.8070	0.0198
263.0610	0.0090
263.3160	0.0270
263.5700	0.0432
263.8240	0.0206
264.0790	0.0142
264.3330	0.0065
264.5870	0.0069
264.8420	0.0604
265.0960	0.0460
265.3510	0.0553
265.6050	0.0580
265.8590	0.0348
266.1140	0.0226
266.3680	0.0309
266.6220	0.0308
266.8770	0.0359
267.1310	0.0282
267.3850	0.0405
267.6400	0.0272
267.8940	0.0245
268.1480	0.0116
268.4030	0.0211
268.6570	0.0244
268.9120	0.0148
269.1660	0.0077
269.4200	0.0221
269.6750	0.0383
269.9290	0.0374
270.1830	0.0362
270.4380	0.0356
270.6920	0.0351
270.9460	0.0304
271.2010	0.0643
271.4550	0.0287
271.7090	0.0097
271.9640	0.0253
272.2180	0.0117
272.4730	0.0005
272.7270	0.0317
272.9810	0.0463
273.2360	0.0191
273.4900	0.0173
273.7440	0.0332
273.9990	0.0443
274.2530	0.0200
274.5070	0.0070
274.7620	0.0203
275.0160	0.0257
275.2710	0.0327
275.5250	0.0254
275.7790	0.0189
276.0340	0.0181
276.2880	0.0145
276.5420	0.0309
276.7970	0.0439
277.0510	0.0430
277.3050	0.0589
277.5600	0.0330
277.8140	0.0248
278.0680	0.0468
278.3230	0.0234
278.5770	0.0287
278.8320	0.0563
279.0860	0.0577
279.3400	0.0625
279.5950	0.0412
279.8490	0.0420
280.1030	0.0349
280.3580	0.0357
280.6120	0.0355
280.8660	0.0327
281.1210	0.0337
281.3750	0.0133
281.6290	0.0066
281.8840	0.0397
282.1380	0.0592
282.3930	0.0434
282.6470	0.0371
282.9010	0.0433
283.1560	0.0286
283.4100	0.0423
283.6640	0.0294
283.9190	0.0286
284.1730	0.0224
284.4270	0.0258
284.6820	0.0238
284.9360	0.0342
285.1910	0.0396
285.4450	0.0388
285.6990	0.0265
285.9540	0.0150
286.2080	0.0350
286.4620	0.0461
286.7170	0.0269
286.9710	0.0579
287.2250	0.0756
287.4800	0.0249
287.7340	-0.0006
287.9880	0.0372
288.2430	0.0665
288.4970	0.0267
288.7520	0.0163
289.0060	0.0537
289.2600	0.0318
289.5150	0.0199
289.7690	0.0196
290.0230	0.0375
290.2780	0.0437
290.5320	0.0413
290.7860	0.0289
291.0410	0.0510
291.2950	0.0567
291.5490	0.0250
291.8040	0.0242
292.0580	0.0384
292.3130	0.0295
292.5670	0.0258
292.8210	0.0232
293.0760	0.0424
293.3300	0.0586
293.5840	0.0711
293.8390	0.0335
294.0930	0.0176
294.3470	0.0289
294.6020	0.0361
294.8560	0.0314
295.1110	0.0171
295.3650	0.0198
295.6190	0.0358
295.8740	0.0317
296.1280	0.0353
296.3820	0.0600
296.6370	0.0596
296.8910	0.0277
297.1450	0.0378
297.4000	0.0792
297.6540	0.0628
297.9080	0.0339
298.1630	0.0318
298.4170	0.0286
298.6720	0.0154
298.9260	0.0270
299.1800	0.0397
299.4350	0.0447
299.6890	0.0277
299.9430	0.0403
300.1980	0.0554
300.4520	0.0660
300.7060	0.0584
300.9610	0.0659
301.2150	0.0513
301.4690	0.0657
301.7240	0.0500
301.9780	0.0484
302.2330	0.0598
302.4870	0.0778
302.7410	0.0769
302.9960	0.0453
303.2500	0.0598
303.5040	0.0876
303.7590	0.0608
304.0130	0.0617
304.2670	0.0898
304.5220	0.0688
304.7760	0.0499
305.0310	0.0404
305.2850	0.0381
305.5390	0.0486
305.7940	0.0337
306.0480	0.0276
306.3020	0.0776
306.5570	0.0668
306.8110	0.0591
307.0650	0.0619
307.3200	0.0708
307.5740	0.0574
307.8280	0.0369
308.0830	0.0448
308.3370	0.0475
308.5920	0.0545
308.8460	0.0727
309.1000	0.0573
309.3550	0.0889
309.6090	0.0903
309.8630	0.0585
310.1180	0.0317
310.3720	0.0520
310.6260	0.0599
310.8810	0.0459
311.1350	0.0500
311.3890	0.0668
311.6440	0.0606
311.8980	0.0428
312.1530	0.0604
312.4070	0.0824
312.6610	0.0823
312.9160	0.0552
313.1700	0.0299
313.4290	0.0570
313.6880	0.0752
313.9470	0.0607
314.2060	0.0377
314.4650	0.0521
314.7240	0.0589
314.9830	0.0681
315.2420	0.0519
315.5010	0.0502
315.7600	0.0505
316.0190	0.0665
316.2780	0.0569
316.5360	0.0435
316.7950	0.0547
317.0540	0.0659
317.3130	0.1100
317.5720	0.0823
317.8310	0.0648
318.0900	0.0427
318.3490	0.0395
318.6080	0.0827
318.8670	0.0678
319.1260	0.0723
319.3850	0.0569
319.6440	0.0787
319.9030	0.0703
320.1620	0.0423
320.4210	0.0346
320.6800	0.0356
320.9390	0.0692
321.1980	0.0459
321.4570	0.0381
321.7160	0.0445
321.9750	0.0663
322.2340	0.0725
322.4930	0.0666
322.7520	0.0784
323.0100	0.0797
323.2690	0.0752
323.5280	0.0630
323.7870	0.0539
324.0460	0.0432
324.3050	0.0557
324.5640	0.0388
324.8230	0.0416
325.0820	0.0505
325.3410	0.0529
325.6000	0.0383
325.8590	0.0274
326.1180	0.0445
326.3770	0.0489
326.6360	0.0553
326.8950	0.0902
327.1540	0.0818
327.4130	0.0357
327.6720	0.0451
327.9310	0.0809
328.1900	0.0886
328.4490	0.0788
328.7080	0.0479
328.9670	0.0419
329.2260	0.0451
329.4850	0.0617
329.7430	0.0787
330.0020	0.0895
330.2610	0.0674
330.5200	0.0552
330.7790	0.0539
331.0380	0.0551
331.2970	0.0387
331.5560	0.0190
331.8150	0.0198
332.0740	0.0321
332.3330	0.0433
332.5920	0.0429
332.8510	0.0331
333.1100	0.0352
333.3690	0.0319
333.6280	0.0236
333.8870	0.0599
334.1460	0.0642
334.4050	0.0572
334.6640	0.0551
334.9230	0.0370
335.1820	0.0424
335.4410	0.0507
335.7000	0.0546
335.9590	0.0457
336.2170	0.0344
336.4760	0.0446
336.7350	0.0557
336.9940	0.0469
337.2530	0.0644
337.5120	0.0529
337.7710	0.0502
338.0300	0.0574
338.2890	0.0704
338.5480	0.0455
338.8070	0.0404
339.0660	0.0536
339.3250	0.0385
339.5840	0.0412
339.8430	0.0446
340.1020	0.0406
340.3610	0.0442
340.6200	0.0549
340.8790	0.0607
341.1380	0.0552
341.3970	0.0417
341.6560	0.0366
341.9150	0.0322
342.1740	0.0538
342.4330	0.0481
342.6910	0.0435
342.9500	0.0421
343.2090	0.0250
343.4680	0.0530
343.7270	0.0468
343.9860	0.0296
344.2450	0.0204
344.5040	0.0487
344.7630	0.0647
345.0220	0.0562
345.2810	0.0341
345.5400	0.0286
345.7990	0.0383
346.0580	0.0439
346.3170	0.0399
346.5760	0.0597
346.8350	0.0476
347.0940	0.0226
347.3530	0.0250
347.6120	0.0302
347.8710	0.0505
348.1300	0.0523
348.3890	0.0390
348.6480	0.0494
348.9070	0.0422
349.1660	0.0231
349.4240	0.0224
349.6830	0.0349
349.9420	0.0548
350.2010	0.0490
350.4600	0.0480
350.7190	0.0546
350.9780	0.0451
351.2370	0.0295
351.4960	0.0191
351.7550	0.0371
352.0140	0.0477
352.2730	0.0295
352.5320	0.0297
352.7910	0.0544
353.0500	0.0409
353.3090	0.0186
353.5680	0.0181
353.8270	0.0346
354.0860	0.0485
354.3450	0.0541
354.6040	0.0335
354.8630	0.0431
355.1220	0.0481
355.3810	0.0490
355.6400	0.0379
355.8980	0.0799
356.1570	0.0859
356.4160	0.0497
356.6750	0.0628
356.9340	0.0600
357.1930	0.0561
357.4520	0.0569
357.7110	0.0503
357.9700	0.0548
358.2290	0.0460
358.4880	0.0508
358.7470	0.0271
359.0060	0.0373
359.2650	0.0587
359.5240	0.0326
359.7830	0.0290
360.0420	0.0304
360.3010	0.0607
360.5600	0.0411
360.8190	0.0330
361.0780	0.0297
361.3370	0.0378
361.5960	0.0438
361.8550	0.0305
362.1140	0.0458
362.3720	0.0569
362.6310	0.0314
362.8900	0.0349
363.1490	0.0427
363.4080	0.0662
363.6670	0.0515
363.9260	0.0317
364.1850	0.0342
364.4440	0.0367
364.7030	0.0243
364.9620	0.0435
365.2210	0.0755
365.4800	0.0579
365.7390	0.0561
365.9990	0.0547
366.2580	0.0429
366.5180	0.0382
366.7770	0.0260
367.0370	0.0562
367.2960	0.0473
367.5560	0.0459
367.8150	0.0497
368.0750	0.0578
368.3340	0.0493
368.5940	0.0406
368.8530	0.0514
369.1130	0.0405
369.3720	0.0320
369.6320	0.0561
369.8910	0.0490
370.1500	0.0271
370.4100	0.0528
370.6690	0.0607
370.9290	0.0278
371.1880	0.0226
371.4480	0.0391
371.7070	0.0660
371.9670	0.0416
372.2260	0.0297
372.4860	0.0783
372.7450	0.0655
373.0050	0.0607
373.2640	0.0318
373.5240	0.0326
373.7830	0.0321
374.0430	0.0569
374.3020	0.0442
374.5610	0.0593
374.8210	0.0447
375.0800	0.0395
375.3400	0.0641
375.5990	0.0583
375.8590	0.0603
376.1180	0.0413
376.3780	0.0295
376.6370	0.0593
376.8970	0.0590
377.1560	0.0337
377.4160	0.0308
377.6750	0.0284
377.9350	0.0467
378.1940	0.0546
378.4540	0.0538
378.7130	0.0571
378.9720	0.0496
379.2320	0.0414
379.4910	0.0401
379.7510	0.0425
380.0100	0.0535
380.2700	0.0387
380.5290	0.0299
380.7890	0.0508
381.0480	0.0538
381.3080	0.0401
381.5670	0.0346
381.8270	0.0394
382.0860	0.0294
382.3460	0.0312
382.6050	0.0223
382.8650	0.0382
383.1240	0.0566
383.3830	0.0477
383.6430	0.0657
383.9020	0.0593
384.1620	0.0410
384.4210	0.0209
384.6810	0.0638
384.9400	0.0981
385.2000	0.0716
385.4590	0.0534
385.7190	0.0366
385.9780	0.0289
386.2380	0.0448
386.4970	0.0386
386.7570	0.0203
387.0160	0.0524
387.2760	0.0686
387.5350	0.0528
387.7940	0.0569
388.0540	0.0512
388.3130	0.0578
388.5730	0.0372
388.8320	0.0326
389.0920	0.0379
389.3510	0.0390
389.6110	0.0403
389.8700	0.0486
390.1300	0.0722
390.3890	0.0704
390.6490	0.0409
390.9080	0.0186
391.1680	0.0409
391.4270	0.0738
391.6860	0.0762
391.9460	0.0470
392.2050	0.0522
392.4650	0.0688
392.7240	0.0418
392.9840	0.0578
393.2430	0.0741
393.5030	0.0651
393.7620	0.0552
394.0220	0.0358
394.2810	0.0297
394.5410	0.0364
394.8000	0.0474
395.0600	0.0411
395.3190	0.0501
395.5790	0.0393
395.8380	0.0282
396.0970	0.0436
396.3570	0.0784
396.6160	0.0530
396.8760	0.0318
397.1350	0.0275
397.3950	0.0242
397.6540	0.0387
397.9140	0.0962
398.1730	0.0818
398.4330	0.0689
398.6920	0.0700
398.9520	0.0647
399.2110	0.0406
399.4710	0.0634
399.7300	0.0531
399.9900	0.0538
400.2490	0.0433
400.5080	0.0366
400.7680	0.0344
401.0270	0.0352
401.2870	0.0536
401.5460	0.0528
401.8060	0.0543
402.0650	0.0946
402.3250	0.0628
402.5840	0.0812
402.8440	0.0622
403.1030	0.0379
403.3630	0.0928
403.6220	0.0629
403.8820	0.0469
404.1410	0.0509
404.4010	0.0927
404.6600	0.0702
404.9260	0.0431
405.1930	0.0450
405.4590	0.0443
405.7260	0.0322
405.9920	0.0265
406.2590	0.0284
406.5250	0.0256
406.7920	0.0533
407.0580	0.0521
407.3250	0.0273
407.5910	0.0396
407.8580	0.0551
408.1240	0.0636
408.3910	0.0390
408.6570	0.0313
408.9240	0.0398
409.1900	0.0472
409.4570	0.0749
409.7230	0.0556
409.9900	0.0564
410.2560	0.0789
410.5230	0.0434
410.7890	0.0300
411.0560	0.0436
411.3220	0.0382
411.5890	0.0231
411.8550	0.0448
412.1220	0.0510
412.3880	0.0415
412.6550	0.0249
412.9210	0.0193
413.1880	0.0488
413.4540	0.0870
413.7210	0.0445
413.9870	0.0358
414.2540	0.0467
414.5200	0.0404
414.7870	0.0243
415.0530	0.0439
415.3200	0.0529
415.5860	0.0526
415.8530	0.0436
416.1190	0.0370
416.3860	0.0436
416.6520	0.0343
416.9190	0.0372
417.1850	0.0251
417.4520	0.0508
417.7180	0.0758
417.9850	0.0527
418.2510	0.0340
418.5180	0.0443
418.7840	0.0356
419.0510	0.0327
419.3170	0.0359
419.5840	0.0456
419.8500	0.0500
420.1170	0.0401
420.3830	0.0238
420.6500	0.0252
420.9160	0.0421
421.1830	0.0274
421.4490	0.0352
421.7160	0.0482
421.9820	0.0562
422.2490	0.0422
422.5150	0.0596
422.7820	0.0676
423.0480	0.0580
423.3150	0.0703
423.5810	0.0558
423.8480	0.0803
424.1140	0.0887
424.3810	0.0455
424.6470	0.0531
424.9140	0.0638
425.1800	0.0509
425.4470	0.0477
425.7130	0.0615
425.9800	0.0921
426.2460	0.1095
426.5130	0.0620
426.7790	0.0236
427.0460	0.0334
427.3120	0.0581
427.5790	0.0384
427.8450	0.0373
428.1120	0.0496
428.3780	0.0628
428.6450	0.1212
428.9110	0.0640
429.1780	0.0421
429.4440	0.0434
429.7110	0.0380
429.9770	0.0229
430.2440	0.0461
430.5100	0.0491
430.7770	0.0505
431.0430	0.0604
431.3100	0.0555
431.5760	0.0429
431.8430	0.0719
432.1090	0.0606
432.3760	0.0479
432.6420	0.0708
432.9090	0.0534
433.1750	0.0314
433.4420	0.0314
433.7080	0.0803
433.9750	0.1029
434.2410	0.0744
434.5080	0.0666
434.7740	0.0542
435.0410	0.0576
435.3070	0.0379
435.5740	0.0472
435.8400	0.0621
436.1100	0.0840
436.3790	0.0705
436.6490	0.0646
436.9180	0.0702
437.1880	0.0814
437.4570	0.0643
437.7270	0.0418
437.9960	0.0511
438.2660	0.0376
438.5350	0.0455
438.8050	0.0648
439.0740	0.0629
439.3440	0.0553
439.6130	0.0607
439.8830	0.0412
440.1520	0.0475
440.4220	0.0583
440.6910	0.0569
440.9610	0.0490
441.2300	0.0454
441.5000	0.0522
441.7690	0.0403
442.0390	0.0328
442.3080	0.0410
442.5780	0.0624
442.8470	0.0555
443.1170	0.0750
443.3860	0.0540
443.6560	0.0409
443.9250	0.0331
444.1950	0.0748
444.4640	0.0757
444.7340	0.0427
445.0030	0.0300
445.2730	0.0473
445.5420	0.0706
445.8120	0.0574
446.0810	0.0639
446.3510	0.0744
446.6200	0.0610
446.8900	0.0482
447.1590	0.0366
447.4290	0.0552
447.6980	0.0881
447.9680	0.0561
448.2380	0.0561
448.5070	0.0638
448.7770	0.0550
449.0460	0.0429
449.3160	0.0593
449.5850	0.0696
449.8550	0.0691
450.1240	0.0642
450.3940	0.0547
450.6630	0.0539
450.9330	0.0549
451.2020	0.0416
451.4720	0.0501
451.7410	0.0730
452.0110	0.0568
452.2800	0.0313
452.5500	0.0368
452.8190	0.0403
453.0890	0.0632
453.3580	0.0493
453.6280	0.0387
453.8970	0.0499
454.1670	0.0623
454.4360	0.0545
454.7060	0.0434
454.9750	0.0422
455.2450	0.0525
455.5140	0.0595
455.7840	0.0341
456.0530	0.0475
456.3230	0.0448
456.5920	0.0346
456.8620	0.0552
457.1310	0.0672
457.4010	0.0599
457.6700	0.0347
457.9400	0.0533
458.2090	0.0464
458.4790	0.0425
458.7480	0.0421
459.0180	0.0246
459.2870	0.0415
459.5570	0.0506
459.8260	0.1001
460.0960	0.1334
460.3660	0.1024
460.6350	0.0655
460.9050	0.0696
461.1740	0.0415
461.4440	0.0418
461.7130	0.0465
461.9830	0.0315
462.2520	0.0212
462.5220	0.0437
462.7910	0.0448
463.0610	0.0304
463.3300	0.0663
463.6000	0.0712
463.8690	0.0581
464.1390	0.0322
464.4080	0.0229
464.6780	0.0348
464.9470	0.0457
465.2170	0.0500
465.4860	0.0495
465.7560	0.0458
466.0250	0.0615
466.2950	0.0461
466.5640	0.0517
466.8340	0.0647
467.1030	0.0927
467.3730	0.0675
467.6420	0.0440
467.9120	0.0388
468.1810	0.0459
468.4510	0.0311
468.7200	0.0351
468.9900	0.0451
469.2590	0.0801
469.5290	0.0807
469.7980	0.0406
470.0680	0.0371
470.3370	0.0454
470.6070	0.0303
470.8760	0.0346
471.1460	0.0645
471.4150	0.0707
471.6850	0.0526
471.9540	0.0460
472.2240	0.0466
472.4930	0.0466
472.7630	0.0477
473.0330	0.0689
473.3020	0.0999
473.5720	0.0611
473.8410	0.0255
474.1110	0.0338
474.3800	0.0383
474.6500	0.0431
474.9190	0.0499
475.1890	0.0323
475.4580	0.0393
475.7280	0.0497
475.9970	0.0803
476.2670	0.0613
476.5360	0.0482
476.8060	0.0573
477.0750	0.0364
477.3450	0.0523
477.6140	0.0519
477.8840	0.0823
478.1530	0.0564
478.4230	0.0336
478.6920	0.0472
478.9620	0.0463
479.2310	0.0266
479.5010	0.0300
479.7700	0.0573
480.0400	0.0758
480.3090	0.0428
480.5790	0.0236
480.8480	0.0307
481.1180	0.0712
481.3870	0.0567
481.6570	0.0574
481.9260	0.0495
482.1960	0.0399
482.4650	0.0314
482.7350	0.0393
483.0040	0.0521
483.2740	0.0462
483.5430	0.0424
483.8130	0.0255
484.0820	0.0346
484.3520	0.0508
484.6210	0.0346
484.8910	0.0304
485.1610	0.0404
485.4300	0.0784
485.7000	0.0469
485.9690	0.0332
486.2390	0.0416
486.5080	0.0612
486.7780	0.0513
487.0470	0.0355
487.3170	0.0334
487.5860	0.0425
487.8560	0.0347
488.1250	0.0409
488.3950	0.0335
488.6640	0.0354
488.9340	0.0507
489.2030	0.0358
489.4730	0.0309
489.7420	0.0402
490.0120	0.0288
490.2810	0.0228
490.5510	0.0384
490.8200	0.0541
491.0900	0.0744
491.3590	0.0519
491.6290	0.0377
491.8980	0.0677
492.1680	0.0594
492.4370	0.0274
492.7070	0.0285
492.9760	0.0713
493.2460	0.0447
493.5150	0.0363
493.7850	0.0583
494.0540	0.0721
494.3240	0.0585
494.5930	0.0296
494.8630	0.0271
495.1320	0.0453
495.4020	0.0762
495.6710	0.0506
495.9410	0.0365
496.2100	0.0575
496.4800	0.0502
496.7490	0.0594
497.0190	0.0612
497.2890	0.0653
497.5580	0.0423
497.8280	0.0408
498.0970	0.0447
498.3670	0.0606
498.6360	0.0561
498.9060	0.0334
499.1750	0.0307
499.4450	0.0416
499.7140	0.0314
499.9840	0.0263
500.2530	0.0300
500.5230	0.0452
500.7920	0.0414
501.0620	0.0371
501.3310	0.0632
501.6010	0.0654
501.8700	0.0569
502.1400	0.0464
502.4090	0.0366
502.6790	0.0367
502.9480	0.0429
503.2180	0.0451
503.4870	0.0924
503.7570	0.0608
504.0260	0.0406
504.2960	0.0432
504.5650	0.0603
504.8350	0.0513
505.1040	0.0422
505.3740	0.0621
505.6430	0.0482
505.9130	0.0858
506.1820	0.0783
506.4520	0.0503
506.7210	0.0978
506.9910	0.0861
507.2600	0.0393
507.5300	0.0437
507.7990	0.0412
508.0690	0.0353
508.3380	0.0506
508.6080	0.0442
508.8770	0.0508
509.1470	0.0631
509.4160	0.0526
509.6860	0.0329
509.9560	0.0637
510.2250	0.0751
510.4950	0.0426
510.7640	0.0320
511.0340	0.0487
511.3030	0.0571
511.5730	0.0433
511.8420	0.0280
512.1120	0.0516
512.3810	0.0579
512.6510	0.0377
512.9200	0.0281
513.1900	0.0456
513.4590	0.0391
513.7290	0.0371
513.9980	0.0555
514.2680	0.0647
514.5370	0.1425
514.8070	0.1075
515.0760	0.0530
515.3460	0.0455
515.6150	0.0344
515.8850	0.0476
516.1540	0.0631
516.4240	0.0553
516.6930	0.0516
516.9630	0.0399
517.2320	0.0447
517.5020	0.0430
517.7710	0.0337
518.0410	0.0433
518.3100	0.0505
518.5800	0.0432
518.8490	0.0675
519.1190	0.0525
519.3880	0.0426
519.6580	0.0632
519.9270	0.0468
520.1970	0.0273
520.4660	0.0224
520.7360	0.0315
521.0050	0.0490
521.2750	0.0397
521.5440	0.0533
521.8140	0.0401
522.0840	0.0496
522.3530	0.0543
522.6230	0.0297
522.8920	0.0441
523.1620	0.0548
523.4310	0.0596
523.7010	0.0496
523.9700	0.0415
524.2400	0.0319
524.5090	0.0360
524.7790	0.0271
525.0480	0.0222
525.3180	0.0489
525.5870	0.0339
525.8570	0.0258
526.1260	0.0601
526.3960	0.0569
526.6650	0.0365
526.9350	0.0326
527.2040	0.0344
527.4740	0.0424
527.7430	0.0392
528.0130	0.0239
528.2820	0.0317
528.5520	0.0415
528.8210	0.0446
529.0910	0.0468
529.3600	0.0366
529.6300	0.0395
529.8990	0.0370
530.1690	0.0374
530.4380	0.0568
530.7080	0.0489
530.9770	0.0419
531.2470	0.0431
531.5160	0.0699
531.7860	0.0592
532.0550	0.0328
532.3250	0.0262
532.5940	0.0436
532.8640	0.0545
533.1330	0.0430
533.4030	0.0264
533.6720	0.0343
533.9420	0.0591
534.2120	0.0363
534.4810	0.0213
534.7510	0.0373
535.0200	0.0960
535.2900	0.0567
535.5590	0.0266
535.8290	0.0413
536.0980	0.0665
536.3680	0.0578
536.6370	0.0429
536.9070	0.0625
537.1760	0.0630
537.4460	0.0560
537.7150	0.0446
537.9850	0.0420
538.2540	0.0498
538.5240	0.0530
538.7930	0.0602
539.0630	0.0451
539.3320	0.0559
539.6020	0.0570
539.8710	0.0471
540.1410	0.0561
540.4100	0.0684
540.6800	0.0465
540.9490	0.0440
541.2190	0.0516
541.4880	0.0811
541.7580	0.0820
542.0270	0.0509
542.2970	0.0429
542.5660	0.0496
542.8360	0.0316
543.1050	0.0292
543.3750	0.0412
543.6440	0.0422
543.9140	0.0331
544.1830	0.0292
544.4530	0.0513
544.7220	0.0455
544.9920	0.0254
545.2610	0.0366
545.5310	0.0488
545.8000	0.0468
546.0700	0.0403
546.3460	0.0337
546.6220	0.0384
546.8970	0.0372
547.1730	0.0465
547.4490	0.0332
547.7250	0.0559
548.0010	0.0551
548.2760	0.0498
548.5520	0.0454
548.8280	0.0424
549.1040	0.0491
549.3800	0.0456
549.6550	0.0547
549.9310	0.0659
550.2070	0.0807
550.4830	0.0489
550.7590	0.0339
551.0340	0.0362
551.3100	0.0543
551.5860	0.0430
551.8620	0.0618
552.1380	0.0507
552.4130	0.0381
552.6890	0.0275
552.9650	0.0263
553.2410	0.0314
553.5170	0.0438
553.7930	0.0360
554.0680	0.0312
554.3440	0.0364
554.6200	0.0616
554.8960	0.0431
555.1720	0.0266
555.4470	0.0432
555.7230	0.0414
555.9990	0.0318
556.2750	0.0330
556.5510	0.0559
556.8260	0.0462
557.1020	0.0334
557.3780	0.0529
557.6540	0.0511
557.9300	0.0403
558.2050	0.0386
558.4810	0.0300
558.7570	0.0371
559.0330	0.0367
559.3090	0.0608
559.5840	0.0603
559.8600	0.0537
560.1360	0.0449
560.4120	0.0388
560.6880	0.0346
560.9630	0.0385
561.2390	0.1008
561.5150	0.0601
561.7910	0.0288
562.0670	0.0403
562.3420	0.0515
562.6180	0.0395
562.8940	0.0213
563.1700	0.0555
563.4460	0.0500
563.7210	0.0233
563.9970	0.0249
564.2730	0.0406
564.5490	0.0559
564.8250	0.0494
565.1000	0.0828
565.3760	0.0642
565.6520	0.0485
565.9280	0.0608
566.2040	0.0376
566.4790	0.0428
566.7550	0.0445
567.0310	0.0389
567.3070	0.0293
567.5830	0.0533
567.8580	0.0494
568.1340	0.0353
568.4100	0.0257
568.6860	0.0480
568.9620	0.0449
569.2370	0.0676
569.5130	0.0422
569.7890	0.0460
570.0650	0.0428
570.3410	0.0356
570.6170	0.0335
570.8920	0.0430
571.1680	0.0436
571.4440	0.0404
571.7200	0.0371
571.9960	0.0562
572.2710	0.0871
572.5470	0.0521
572.8230	0.0261
573.0990	0.0456
573.3750	0.0881
573.6500	0.0580
573.9260	0.0367
574.2020	0.0400
574.4780	0.0437
574.7540	0.0368
575.0290	0.0352
575.3050	0.0605
575.5810	0.0465
575.8570	0.0307
576.1330	0.0267
576.4080	0.0399
576.6840	0.0555
576.9600	0.0514
577.2390	0.0360
577.5170	0.0331
577.7960	0.0463
578.0750	0.0621
578.3540	0.0380
578.6320	0.0321
578.9110	0.0594
579.1900	0.0892
579.4690	0.0630
579.7470	0.0489
580.0260	0.0498
580.3050	0.0361
580.5840	0.0520
580.8620	0.0445
581.1410	0.0495
581.4200	0.0457
581.6990	0.0395
581.9770	0.0531
582.2560	0.0501
582.5350	0.0619
582.8140	0.0498
583.0920	0.0528
583.3710	0.0516
583.6500	0.0490
583.9290	0.0446
584.2070	0.0380
584.4860	0.0547
584.7650	0.0589
585.0430	0.0337
585.3220	0.0614
585.6010	0.0678
585.8800	0.0514
586.1580	0.0349
586.4370	0.0332
586.7160	0.0440
586.9950	0.0519
587.2730	0.0411
587.5520	0.0417
587.8310	0.0509
588.1100	0.0581
588.3880	0.0353
588.6670	0.0264
588.9460	0.0292
589.2250	0.0212
589.5030	0.0207
589.7820	0.0277
590.0610	0.0337
590.3400	0.0532
590.6180	0.0803
590.8970	0.0969
591.1760	0.0662
591.4550	0.0416
591.7330	0.0413
592.0120	0.0545
592.2910	0.0738
592.5700	0.0509
592.8480	0.0618
593.1270	0.0450
593.4060	0.0435
593.6840	0.0317
593.9630	0.0365
594.2420	0.0453
594.5210	0.0400
594.7990	0.0460
595.0780	0.0451
595.3570	0.0407
595.6360	0.0392
595.9140	0.0410
596.1930	0.0336
596.4720	0.0378
596.7510	0.0485
597.0290	0.0536
597.3080	0.0509
597.5870	0.0370
597.8660	0.0395
598.1440	0.0286
598.4230	0.0249
598.7020	0.0355
598.9810	0.0451
599.2590	0.0652
599.5380	0.0525
599.8170	0.0367
