199.8780	0.0064
200.1320	0.0067
200.3850	0.0005
200.6390	0.0028
200.8920	0.0068
201.1460	0.0046
201.4000	0.0026
201.6530	0.0032
201.9070	0.0058
202.1610	0.0017
202.4140	-0.0002
202.6680	0.0063
202.9220	0.0059
203.1750	0.0042
203.4290	0.0010
203.6830	0.0064
203.9360	0.0106
204.1900	0.0051
204.4430	0.0107
204.6970	0.0148
204.9510	0.0074
205.2040	0.0025
205.4580	0.0041
205.7120	0.0088
205.9650	0.0064
206.2190	0.0050
206.4730	0.0052
206.7260	0.0047
206.9800	0.0087
207.2330	0.0034
207.4870	-0.0013
207.7410	0.0034
207.9940	0.0072
208.2480	0.0060
208.5020	0.0029
208.7550	0.0051
209.0090	0.0105
209.2630	0.0110
209.5160	0.0037
209.7700	0.0028
210.0240	0.0061
210.2770	0.0041
210.5310	0.0005
210.7840	0.0006
211.0380	0.0024
211.2920	-0.0003
211.5450	0.0003
211.7990	0.0096
212.0530	0.0138
212.3060	0.0098
212.5600	0.0031
212.8140	0.0032
213.0670	0.0045
213.3210	0.0046
213.5750	0.0041
213.8280	0.0073
214.0820	0.0123
214.3350	0.0065
214.5890	0.0028
214.8430	0.0046
215.0960	0.0115
215.3500	0.0077
215.6040	0.0057
215.8570	0.0047
216.1110	0.0066
216.3650	0.0024
216.6180	0.0013
216.8720	0.0047
217.1260	0.0039
217.3790	0.0058
217.6330	0.0019
217.8860	0.0051
218.1400	0.0060
218.3940	0.0028
218.6470	0.0013
218.9010	0.0025
219.1550	0.0066
219.4080	0.0018
219.6620	-0.0006
219.9160	0.0049
220.1690	0.0085
220.4230	0.0065
220.6770	0.0050
220.9300	0.0022
221.1840	0.0020
221.4370	-0.0004
221.6910	-0.0001
221.9450	0.0031
222.1980	0.0049
222.4520	0.0054
222.7060	0.0070
222.9590	0.0072
223.2130	0.0087
223.4670	0.0056
223.7200	0.0055
223.9740	0.0072
224.2280	0.0049
224.4810	0.0057
224.7350	0.0038
224.9880	0.0064
225.2420	0.0102
225.4960	0.0077
225.7490	0.0107
226.0030	0.0107
226.2570	0.0071
226.5100	0.0020
226.7640	0.0074
227.0180	0.0096
227.2710	0.0095
227.5250	0.0057
227.7790	0.0025
228.0320	0.0070
228.2860	0.0119
228.5390	0.0081
228.7930	0.0024
229.0470	0.0064
229.3000	0.0146
229.5540	0.0134
229.8080	0.0067
230.0610	0.0079
230.3150	0.0103
230.5690	0.0031
230.8220	0.0033
231.0760	0.0070
231.3300	0.0060
231.5830	0.0063
231.8370	0.0023
232.0900	0.0030
232.3440	0.0057
232.5980	0.0054
232.8510	0.0065
233.1050	0.0063
233.3590	0.0148
233.6120	0.0077
233.8660	0.0038
234.1200	0.0061
234.3730	0.0122
234.6270	0.0087
234.8800	0.0014
235.1340	0.0038
235.3880	0.0119
235.6410	0.0063
235.8950	0.0009
236.1490	0.0038
236.4020	0.0070
236.6560	0.0071
236.9100	-0.0004
237.1630	0.0060
237.4170	0.0070
237.6710	-0.0009
237.9240	0.0020
238.1780	0.0073
238.4310	0.0070
238.6850	0.0039
238.9390	0.0062
239.1920	0.0041
239.4460	0.0100
239.7000	0.0073
239.9530	-0.0001
240.2070	0.0065
240.4610	0.0093
240.7140	0.0063
240.9680	0.0040
241.2220	0.0039
241.4750	0.0055
241.7290	0.0030
241.9820	0.0033
242.2360	0.0095
242.4900	0.0088
242.7430	0.0057
242.9970	0.0139
243.2510	0.0059
243.5040	0.0066
243.7580	0.0005
244.0120	0.0017
244.2650	0.0148
244.5190	0.0135
244.7730	0.0050
245.0260	0.0039
245.2800	0.0068
245.5330	0.0106
245.7870	0.0060
246.0410	0.0050
246.2940	0.0105
246.5480	0.0088
246.8020	0.0056
247.0550	0.0062
247.3090	0.0126
247.5630	0.0105
247.8160	0.0070
248.0700	0.0073
248.3240	0.0142
248.5770	0.0071
248.8310	0.0014
249.0840	0.0047
249.3380	0.0065
249.5920	0.0091
249.8450	0.0036
250.0990	0.0067
250.3530	0.0109
250.6060	0.0080
250.8600	0.0026
251.1140	-0.0003
251.3670	0.0094
251.6210	0.0101
251.8750	0.0066
252.1280	0.0108
252.3820	0.0120
252.6350	0.0103
252.8890	0.0075
253.1430	0.0028
253.3960	0.0072
253.6500	0.0093
253.9040	0.0047
254.1590	0.0012
254.4130	0.0084
254.6670	0.0147
254.9220	0.0137
255.1760	0.0137
255.4310	0.0063
255.6850	0.0071
255.9390	0.0084
256.1940	0.0022
256.4480	0.0042
256.7020	0.0073
256.9570	0.0076
257.2110	0.0071
257.4650	0.0109
257.7200	0.0202
257.9740	0.0131
258.2280	0.0092
258.4830	0.0052
258.7370	0.0057
258.9920	0.0071
259.2460	0.0057
259.5000	0.0076
259.7550	0.0119
260.0090	0.0105
260.2630	0.0061
260.5180	0.0091
260.7720	0.0111
261.0260	0.0060
261.2810	0.0030
261.5350	0.0054
261.7890	0.0076
262.0440	0.0038
262.2980	0.0079
262.5530	0.0098
262.8070	0.0069
263.0610	0.0039
263.3160	0.0062
263.5700	0.0111
263.8240	0.0050
264.0790	0.0036
264.3330	0.0023
264.5870	0.0018
264.8420	0.0134
265.0960	0.0108
265.3510	0.0122
265.6050	0.0139
265.8590	0.0097
266.1140	0.0061
266.3680	0.0066
266.6220	0.0081
266.8770	0.0105
267.1310	0.0079
267.3850	0.0094
267.6400	0.0078
267.8940	0.0082
268.1480	0.0040
268.4030	0.0052
268.6570	0.0076
268.9120	0.0046
269.1660	0.0023
269.4200	0.0060
269.6750	0.0101
269.9290	0.0101
270.1830	0.0091
270.4380	0.0085
270.6920	0.0101
270.9460	0.0100
271.2010	0.0145
271.4550	0.0045
271.7090	0.0032
271.9640	0.0086
272.2180	0.0038
272.4730	0.0001
272.7270	0.0090
272.9810	0.0129
273.2360	0.0089
273.4900	0.0064
273.7440	0.0092
273.9990	0.0121
274.2530	0.0056
274.5070	0.0027
274.7620	0.0067
275.0160	0.0088
275.2710	0.0087
275.5250	0.0066
275.7790	0.0065
276.0340	0.0068
276.2880	0.0052
276.5420	0.0076
276.7970	0.0112
277.0510	0.0119
277.3050	0.0133
277.5600	0.0083
277.8140	0.0081
278.0680	0.0127
278.3230	0.0069
278.5770	0.0073
278.8320	0.0138
279.0860	0.0149
279.3400	0.0145
279.5950	0.0098
279.8490	0.0115
280.1030	0.0105
280.3580	0.0086
280.6120	0.0083
280.8660	0.0096
281.1210	0.0110
281.3750	0.0048
281.6290	0.0031
281.8840	0.0109
282.1380	0.0152
282.3930	0.0109
282.6470	0.0091
282.9010	0.0111
283.1560	0.0083
283.4100	0.0102
283.6640	0.0080
283.9190	0.0094
284.1730	0.0061
284.4270	0.0059
284.6820	0.0063
284.9360	0.0096
285.1910	0.0119
285.4450	0.0105
285.6990	0.0072
285.9540	0.0035
286.2080	0.0088
286.4620	0.0110
286.7170	0.0068
286.9710	0.0123
287.2250	0.0176
287.4800	0.0051
287.7340	-0.0012
287.9880	0.0095
288.2430	0.0169
288.4970	0.0052
288.7520	0.0033
289.0060	0.0133
289.2600	0.0074
289.5150	0.0053
289.7690	0.0058
290.0230	0.0105
290.2780	0.0123
290.5320	0.0110
290.7860	0.0073
291.0410	0.0131
291.2950	0.0146
291.5490	0.0071
291.8040	0.0067
292.0580	0.0105
292.3130	0.0093
292.5670	0.0076
292.8210	0.0068
293.0760	0.0115
293.3300	0.0151
293.5840	0.0156
293.8390	0.0078
294.0930	0.0059
294.3470	0.0091
294.6020	0.0093
294.8560	0.0078
295.1110	0.0040
295.3650	0.0063
295.6190	0.0092
295.8740	0.0079
296.1280	0.0097
296.3820	0.0147
296.6370	0.0138
296.8910	0.0069
297.1450	0.0105
297.4000	0.0194
297.6540	0.0144
297.9080	0.0097
298.1630	0.0101
298.4170	0.0083
298.6720	0.0031
298.9260	0.0056
299.1800	0.0100
299.4350	0.0118
299.6890	0.0066
299.9430	0.0047
300.1980	0.0106
300.4520	0.0154
300.7060	0.0129
300.9610	0.0132
301.2150	0.0119
301.4690	0.0150
301.7240	0.0110
301.9780	0.0099
302.2330	0.0137
302.4870	0.0174
302.7410	0.0151
302.9960	0.0091
303.2500	0.0141
303.5040	0.0193
303.7590	0.0127
304.0130	0.0132
304.2670	0.0191
304.5220	0.0154
304.7760	0.0104
305.0310	0.0082
305.2850	0.0098
305.5390	0.0116
305.7940	0.0076
306.0480	0.0067
306.3020	0.0168
306.5570	0.0152
306.8110	0.0125
307.0650	0.0123
307.3200	0.0155
307.5740	0.0131
307.8280	0.0084
308.0830	0.0094
308.3370	0.0106
308.5920	0.0133
308.8460	0.0160
309.1000	0.0121
309.3550	0.0194
309.6090	0.0203
309.8630	0.0130
310.1180	0.0073
310.3720	0.0126
310.6260	0.0152
310.8810	0.0113
311.1350	0.0112
311.3890	0.0146
311.6440	0.0145
311.8980	0.0107
312.1530	0.0134
312.4070	0.0193
312.6610	0.0197
312.9160	0.0127
313.1700	0.0080
313.4290	0.0153
313.6880	0.0185
313.9470	0.0143
314.2060	0.0097
314.4650	0.0139
314.7240	0.0161
314.9830	0.0166
315.2420	0.0129
315.5010	0.0141
315.7600	0.0151
316.0190	0.0162
316.2780	0.0133
316.5360	0.0127
316.7950	0.0160
317.0540	0.0154
317.3130	0.0229
317.5720	0.0199
317.8310	0.0174
318.0900	0.0126
318.3490	0.0114
318.6080	0.0200
318.8670	0.0183
319.1260	0.0183
319.3850	0.0145
319.6440	0.0193
319.9030	0.0190
320.1620	0.0127
320.4210	0.0088
320.6800	0.0109
320.9390	0.0182
321.1980	0.0131
321.4570	0.0114
321.7160	0.0141
321.9750	0.0186
322.2340	0.0186
322.4930	0.0169
322.7520	0.0207
323.0100	0.0217
323.2690	0.0186
323.5280	0.0157
323.7870	0.0157
324.0460	0.0139
324.3050	0.0150
324.5640	0.0111
324.8230	0.0124
325.0820	0.0152
325.3410	0.0147
325.6000	0.0109
325.8590	0.0100
326.1180	0.0135
326.3770	0.0136
326.6360	0.0141
326.8950	0.0218
327.1540	0.0212
327.4130	0.0114
327.6720	0.0105
327.9310	0.0195
328.1900	0.0220
328.4490	0.0191
328.7080	0.0128
328.9670	0.0128
329.2260	0.0142
329.4850	0.0160
329.7430	0.0186
330.0020	0.0221
330.2610	0.0184
330.5200	0.0145
330.7790	0.0130
331.0380	0.0150
331.2970	0.0124
331.5560	0.0072
331.8150	0.0069
332.0740	0.0110
332.3330	0.0140
332.5920	0.0126
332.8510	0.0096
333.1100	0.0121
333.3690	0.0118
333.6280	0.0087
333.8870	0.0150
334.1460	0.0170
334.4050	0.0194
334.6640	0.0165
334.9230	0.0104
335.1820	0.0134
335.4410	0.0156
335.7000	0.0153
335.9590	0.0127
336.2170	0.0112
336.4760	0.0145
336.7350	0.0151
336.9940	0.0128
337.2530	0.0172
337.5120	0.0157
337.7710	0.0138
338.0300	0.0143
338.2890	0.0180
338.5480	0.0137
338.8070	0.0116
339.0660	0.0137
339.3250	0.0123
339.5840	0.0137
339.8430	0.0134
340.1020	0.0120
340.3610	0.0139
340.6200	0.0162
340.8790	0.0160
341.1380	0.0143
341.3970	0.0135
341.6560	0.0130
341.9150	0.0110
342.1740	0.0146
342.4330	0.0142
342.6910	0.0140
342.9500	0.0138
343.2090	0.0093
343.4680	0.0152
343.7270	0.0146
343.9860	0.0106
344.2450	0.0087
344.5040	0.0151
344.7630	0.0182
345.0220	0.0114
345.2810	0.0084
345.5400	0.0108
345.7990	0.0136
346.0580	0.0133
346.3170	0.0119
346.5760	0.0172
346.8350	0.0154
347.0940	0.0090
347.3530	0.0085
347.6120	0.0106
347.8710	0.0155
348.1300	0.0152
348.3890	0.0120
348.6480	0.0150
348.9070	0.0141
349.1660	0.0099
349.4240	0.0090
349.6830	0.0119
349.9420	0.0167
350.2010	0.0145
350.4600	0.0130
350.7190	0.0158
350.9780	0.0148
351.2370	0.0105
351.4960	0.0075
351.7550	0.0134
352.0140	0.0160
352.2730	0.0104
352.5320	0.0095
352.7910	0.0158
353.0500	0.0134
353.3090	0.0079
353.5680	0.0074
353.8270	0.0122
354.0860	0.0167
354.3450	0.0165
354.6040	0.0110
354.8630	0.0139
355.1220	0.0155
355.3810	0.0146
355.6400	0.0116
355.8980	0.0204
356.1570	0.0224
356.4160	0.0148
356.6750	0.0165
356.9340	0.0171
357.1930	0.0172
357.4520	0.0158
357.7110	0.0141
357.9700	0.0165
358.2290	0.0153
358.4880	0.0149
358.7470	0.0081
359.0060	0.0118
359.2650	0.0176
359.5240	0.0109
359.7830	0.0097
360.0420	0.0108
360.3010	0.0177
360.5600	0.0132
360.8190	0.0114
361.0780	0.0106
361.3370	0.0132
361.5960	0.0133
361.8550	0.0099
362.1140	0.0141
362.3720	0.0169
362.6310	0.0101
362.8900	0.0110
363.1490	0.0135
363.4080	0.0167
363.6670	0.0136
363.9260	0.0102
364.1850	0.0123
364.4440	0.0132
364.7030	0.0093
364.9620	0.0121
365.2210	0.0201
365.4800	0.0176
365.7390	0.0161
365.9990	0.0150
366.2580	0.0135
366.5180	0.0131
366.7770	0.0096
367.0370	0.0142
367.2960	0.0140
367.5560	0.0152
367.8150	0.0149
368.0750	0.0142
368.3340	0.0142
368.5940	0.0139
368.8530	0.0157
369.1130	0.0121
369.3720	0.0112
369.6320	0.0167
369.8910	0.0143
370.1500	0.0092
370.4100	0.0149
370.6690	0.0181
370.9290	0.0089
371.1880	0.0081
371.4480	0.0133
371.7070	0.0192
371.9670	0.0133
372.2260	0.0100
372.4860	0.0207
372.7450	0.0190
373.0050	0.0168
373.2640	0.0093
373.5240	0.0110
373.7830	0.0113
374.0430	0.0152
374.3020	0.0128
374.5610	0.0168
374.8210	0.0139
375.0800	0.0123
375.3400	0.0147
375.5990	0.0154
375.8590	0.0177
376.1180	0.0129
376.3780	0.0103
376.6370	0.0173
376.8970	0.0177
377.1560	0.0119
377.4160	0.0103
377.6750	0.0100
377.9350	0.0147
378.1940	0.0156
378.4540	0.0151
378.7130	0.0169
378.9720	0.0156
379.2320	0.0132
379.4910	0.0121
379.7510	0.0138
380.0100	0.0163
380.2700	0.0124
380.5290	0.0102
380.7890	0.0148
381.0480	0.0158
381.3080	0.0125
381.5670	0.0110
381.8270	0.0136
382.0860	0.0097
382.3460	0.0094
382.6050	0.0081
382.8650	0.0126
383.1240	0.0174
383.3830	0.0143
383.6430	0.0174
383.9020	0.0174
384.1620	0.0146
384.4210	0.0082
384.6810	0.0160
384.9400	0.0242
385.2000	0.0201
385.4590	0.0154
385.7190	0.0113
385.9780	0.0103
386.2380	0.0143
386.4970	0.0123
386.7570	0.0069
387.0160	0.0148
387.2760	0.0192
387.5350	0.0155
387.7940	0.0155
388.0540	0.0154
388.3130	0.0174
388.5730	0.0120
388.8320	0.0108
389.0920	0.0133
389.3510	0.0140
389.6110	0.0128
389.8700	0.0144
390.1300	0.0172
390.3890	0.0183
390.6490	0.0128
390.9080	0.0059
391.1680	0.0130
391.4270	0.0210
391.6860	0.0194
391.9460	0.0136
392.2050	0.0161
392.4650	0.0195
392.7240	0.0132
392.9840	0.0151
393.2430	0.0194
393.5030	0.0188
393.7620	0.0159
394.0220	0.0114
394.2810	0.0110
394.5410	0.0125
394.8000	0.0135
395.0600	0.0118
395.3190	0.0151
395.5790	0.0131
395.8380	0.0100
396.0970	0.0130
396.3570	0.0203
396.6160	0.0156
396.8760	0.0114
397.1350	0.0096
397.3950	0.0073
397.6540	0.0127
397.9140	0.0235
398.1730	0.0199
398.4330	0.0190
398.6920	0.0196
398.9520	0.0177
399.2110	0.0126
399.4710	0.0203
399.7300	0.0179
399.9900	0.0156
400.2490	0.0133
400.5080	0.0129
400.7680	0.0126
401.0270	0.0127
401.2870	0.0154
401.5460	0.0161
401.8060	0.0163
402.0650	0.0188
402.3250	0.0151
402.5840	0.0219
402.8440	0.0182
403.1030	0.0124
403.3630	0.0221
403.6220	0.0165
403.8820	0.0142
404.1410	0.0147
404.4010	0.0216
404.6600	0.0187
404.9260	0.0147
405.1930	0.0141
405.4590	0.0130
405.7260	0.0095
405.9920	0.0088
406.2590	0.0098
406.5250	0.0094
406.7920	0.0158
407.0580	0.0165
407.3250	0.0096
407.5910	0.0116
407.8580	0.0163
408.1240	0.0179
408.3910	0.0118
408.6570	0.0107
408.9240	0.0135
409.1900	0.0154
409.4570	0.0191
409.7230	0.0148
409.9900	0.0167
410.2560	0.0211
410.5230	0.0124
410.7890	0.0098
411.0560	0.0144
411.3220	0.0119
411.5890	0.0075
411.8550	0.0123
412.1220	0.0156
412.3880	0.0147
412.6550	0.0091
412.9210	0.0073
413.1880	0.0152
413.4540	0.0227
413.7210	0.0105
413.9870	0.0095
414.2540	0.0138
414.5200	0.0138
414.7870	0.0088
415.0530	0.0126
415.3200	0.0169
415.5860	0.0173
415.8530	0.0135
416.1190	0.0116
416.3860	0.0137
416.6520	0.0099
416.9190	0.0110
417.1850	0.0073
417.4520	0.0145
417.7180	0.0207
417.9850	0.0164
418.2510	0.0117
418.5180	0.0143
418.7840	0.0104
419.0510	0.0097
419.3170	0.0115
419.5840	0.0154
419.8500	0.0164
420.1170	0.0127
420.3830	0.0072
420.6500	0.0081
420.9160	0.0138
421.1830	0.0078
421.4490	0.0096
421.7160	0.0148
421.9820	0.0171
422.2490	0.0136
422.5150	0.0157
422.7820	0.0183
423.0480	0.0181
423.3150	0.0189
423.5810	0.0153
423.8480	0.0214
424.1140	0.0234
424.3810	0.0139
424.6470	0.0144
424.9140	0.0159
425.1800	0.0150
425.4470	0.0156
425.7130	0.0166
425.9800	0.0227
426.2460	0.0272
426.5130	0.0172
426.7790	0.0064
427.0460	0.0104
427.3120	0.0172
427.5790	0.0122
427.8450	0.0112
428.1120	0.0150
428.3780	0.0185
428.6450	0.0276
428.9110	0.0140
429.1780	0.0122
429.4440	0.0144
429.7110	0.0127
429.9770	0.0059
430.2440	0.0128
430.5100	0.0165
430.7770	0.0151
431.0430	0.0137
431.3100	0.0156
431.5760	0.0148
431.8430	0.0183
432.1090	0.0151
432.3760	0.0132
432.6420	0.0154
432.9090	0.0130
433.1750	0.0106
433.4420	0.0117
433.7080	0.0215
433.9750	0.0249
434.2410	0.0187
434.5080	0.0182
434.7740	0.0169
435.0410	0.0162
435.3070	0.0112
435.5740	0.0140
435.8400	0.0182
436.1100	0.0220
436.3790	0.0184
436.6490	0.0181
436.9180	0.0196
437.1880	0.0208
437.4570	0.0168
437.7270	0.0131
437.9960	0.0157
438.2660	0.0119
438.5350	0.0132
438.8050	0.0187
439.0740	0.0190
439.3440	0.0164
439.6130	0.0162
439.8830	0.0103
440.1520	0.0139
440.4220	0.0161
440.6910	0.0151
440.9610	0.0152
441.2300	0.0152
441.5000	0.0150
441.7690	0.0121
442.0390	0.0107
442.3080	0.0136
442.5780	0.0184
442.8470	0.0157
443.1170	0.0202
443.3860	0.0154
443.6560	0.0124
443.9250	0.0107
444.1950	0.0195
444.4640	0.0205
444.7340	0.0137
445.0030	0.0107
445.2730	0.0150
445.5420	0.0195
445.8120	0.0155
446.0810	0.0161
446.3510	0.0219
446.6200	0.0192
446.8900	0.0147
447.1590	0.0118
447.4290	0.0160
447.6980	0.0218
447.9680	0.0150
448.2380	0.0145
448.5070	0.0180
448.7770	0.0170
449.0460	0.0134
449.3160	0.0158
449.5850	0.0189
449.8550	0.0197
450.1240	0.0169
450.3940	0.0161
450.6630	0.0169
450.9330	0.0173
451.2020	0.0133
451.4720	0.0143
451.7410	0.0196
452.0110	0.0170
452.2800	0.0126
452.5500	0.0124
452.8190	0.0133
453.0890	0.0178
453.3580	0.0152
453.6280	0.0121
453.8970	0.0144
454.1670	0.0181
454.4360	0.0158
454.7060	0.0126
454.9750	0.0135
455.2450	0.0162
455.5140	0.0163
455.7840	0.0093
456.0530	0.0135
456.3230	0.0141
456.5920	0.0112
456.8620	0.0146
457.1310	0.0182
457.4010	0.0170
457.6700	0.0100
457.9400	0.0134
458.2090	0.0131
458.4790	0.0203
458.7480	0.0165
459.0180	0.0062
459.2870	0.0120
459.5570	0.0163
459.8260	0.0242
460.0960	0.0294
460.3660	0.0244
460.6350	0.0186
460.9050	0.0183
461.1740	0.0111
461.4440	0.0167
461.7130	0.0169
461.9830	0.0108
462.2520	0.0073
462.5220	0.0112
462.7910	0.0135
463.0610	0.0108
463.3300	0.0161
463.6000	0.0187
463.8690	0.0174
464.1390	0.0086
464.4080	0.0066
464.6780	0.0118
464.9470	0.0148
465.2170	0.0147
465.4860	0.0136
465.7560	0.0141
466.0250	0.0180
466.2950	0.0136
466.5640	0.0139
466.8340	0.0185
467.1030	0.0244
467.3730	0.0157
467.6420	0.0113
467.9120	0.0122
468.1810	0.0144
468.4510	0.0098
468.7200	0.0106
468.9900	0.0144
469.2590	0.0216
469.5290	0.0206
469.7980	0.0116
470.0680	0.0121
470.3370	0.0148
470.6070	0.0100
470.8760	0.0105
471.1460	0.0178
471.4150	0.0199
471.6850	0.0151
471.9540	0.0132
472.2240	0.0143
472.4930	0.0143
472.7630	0.0140
473.0330	0.0171
473.3020	0.0251
473.5720	0.0168
473.8410	0.0083
474.1110	0.0106
474.3800	0.0120
474.6500	0.0138
474.9190	0.0146
475.1890	0.0099
475.4580	0.0157
475.7280	0.0174
475.9970	0.0199
476.2670	0.0157
476.5360	0.0146
476.8060	0.0172
477.0750	0.0108
477.3450	0.0138
477.6140	0.0158
477.8840	0.0218
478.1530	0.0157
478.4230	0.0108
478.6920	0.0146
478.9620	0.0146
479.2310	0.0073
479.5010	0.0087
479.7700	0.0166
480.0400	0.0206
480.3090	0.0120
480.5790	0.0079
480.8480	0.0094
481.1180	0.0188
481.3870	0.0160
481.6570	0.0156
481.9260	0.0145
482.1960	0.0137
482.4650	0.0129
482.7350	0.0135
483.0040	0.0162
483.2740	0.0152
483.5430	0.0136
483.8130	0.0070
484.0820	0.0111
484.3520	0.0158
484.6210	0.0161
484.8910	0.0122
485.1610	0.0126
485.4300	0.0206
485.7000	0.0114
485.9690	0.0093
486.2390	0.0137
486.5080	0.0179
486.7780	0.0143
487.0470	0.0111
487.3170	0.0097
487.5860	0.0121
487.8560	0.0112
488.1250	0.0119
488.3950	0.0090
488.6640	0.0114
488.9340	0.0148
489.2030	0.0106
489.4730	0.0088
489.7420	0.0123
490.0120	0.0087
490.2810	0.0074
490.5510	0.0124
490.8200	0.0165
491.0900	0.0194
491.3590	0.0151
491.6290	0.0129
491.8980	0.0192
492.1680	0.0166
492.4370	0.0088
492.7070	0.0100
492.9760	0.0196
493.2460	0.0110
493.5150	0.0099
493.7850	0.0163
494.0540	0.0202
494.3240	0.0166
494.5930	0.0075
494.8630	0.0063
495.1320	0.0132
495.4020	0.0190
495.6710	0.0132
495.9410	0.0117
496.2100	0.0166
496.4800	0.0144
496.7490	0.0157
497.0190	0.0154
497.2890	0.0171
497.5580	0.0129
497.8280	0.0154
498.0970	0.0161
498.3670	0.0185
498.6360	0.0164
498.9060	0.0120
499.1750	0.0103
499.4450	0.0129
499.7140	0.0096
499.9840	0.0084
500.2530	0.0084
500.5230	0.0130
500.7920	0.0143
501.0620	0.0125
501.3310	0.0172
501.6010	0.0185
501.8700	0.0163
502.1400	0.0134
502.4090	0.0105
502.6790	0.0117
502.9480	0.0131
503.2180	0.0124
503.4870	0.0229
503.7570	0.0156
504.0260	0.0115
504.2960	0.0126
504.5650	0.0170
504.8350	0.0160
505.1040	0.0130
505.3740	0.0158
505.6430	0.0129
505.9130	0.0218
506.1820	0.0205
506.4520	0.0140
506.7210	0.0245
506.9910	0.0247
507.2600	0.0128
507.5300	0.0124
507.7990	0.0116
508.0690	0.0103
508.3380	0.0146
508.6080	0.0135
508.8770	0.0154
509.1470	0.0184
509.4160	0.0156
509.6860	0.0103
509.9560	0.0177
510.2250	0.0208
510.4950	0.0131
510.7640	0.0105
511.0340	0.0149
511.3030	0.0170
511.5730	0.0132
511.8420	0.0085
512.1120	0.0147
512.3810	0.0168
512.6510	0.0118
512.9200	0.0095
513.1900	0.0144
513.4590	0.0112
513.7290	0.0104
513.9980	0.0145
514.2680	0.0177
514.5370	0.0349
514.8070	0.0261
515.0760	0.0143
515.3460	0.0143
515.6150	0.0101
515.8850	0.0127
516.1540	0.0161
516.4240	0.0157
516.6930	0.0158
516.9630	0.0127
517.2320	0.0126
517.5020	0.0130
517.7710	0.0096
518.0410	0.0117
518.3100	0.0138
518.5800	0.0129
518.8490	0.0211
519.1190	0.0163
519.3880	0.0126
519.6580	0.0175
519.9270	0.0139
520.1970	0.0090
520.4660	0.0091
520.7360	0.0116
521.0050	0.0149
521.2750	0.0122
521.5440	0.0142
521.8140	0.0105
522.0840	0.0138
522.3530	0.0150
522.6230	0.0076
522.8920	0.0109
523.1620	0.0154
523.4310	0.0160
523.7010	0.0134
523.9700	0.0127
524.2400	0.0091
524.5090	0.0102
524.7790	0.0069
525.0480	0.0055
525.3180	0.0135
525.5870	0.0087
525.8570	0.0077
526.1260	0.0162
526.3960	0.0162
526.6650	0.0116
526.9350	0.0102
527.2040	0.0107
527.4740	0.0134
527.7430	0.0120
528.0130	0.0105
528.2820	0.0101
528.5520	0.0120
528.8210	0.0130
529.0910	0.0130
529.3600	0.0099
529.6300	0.0119
529.8990	0.0109
530.1690	0.0109
530.4380	0.0161
530.7080	0.0188
530.9770	0.0152
531.2470	0.0126
531.5160	0.0178
531.7860	0.0171
532.0550	0.0076
532.3250	0.0066
532.5940	0.0136
532.8640	0.0163
533.1330	0.0130
533.4030	0.0075
533.6720	0.0106
533.9420	0.0171
534.2120	0.0094
534.4810	0.0057
534.7510	0.0114
535.0200	0.0239
535.2900	0.0177
535.5590	0.0109
535.8290	0.0136
536.0980	0.0193
536.3680	0.0166
536.6370	0.0126
536.9070	0.0172
537.1760	0.0178
537.4460	0.0153
537.7150	0.0126
537.9850	0.0133
538.2540	0.0154
538.5240	0.0149
538.7930	0.0156
539.0630	0.0119
539.3320	0.0157
539.6020	0.0160
539.8710	0.0131
540.1410	0.0156
540.4100	0.0187
540.6800	0.0135
540.9490	0.0129
541.2190	0.0152
541.4880	0.0207
541.7580	0.0195
542.0270	0.0134
542.2970	0.0132
542.5660	0.0150
542.8360	0.0077
543.1050	0.0085
543.3750	0.0132
543.6440	0.0137
543.9140	0.0117
544.1830	0.0106
544.4530	0.0156
544.7220	0.0138
544.9920	0.0070
545.2610	0.0104
545.5310	0.0151
545.8000	0.0152
546.0700	0.0128
546.3460	0.0109
546.6220	0.0124
546.8970	0.0112
547.1730	0.0119
547.4490	0.0086
547.7250	0.0150
548.0010	0.0159
548.2760	0.0143
548.5520	0.0127
548.8280	0.0134
549.1040	0.0152
549.3800	0.0134
549.6550	0.0147
549.9310	0.0175
550.2070	0.0207
550.4830	0.0132
550.7590	0.0101
551.0340	0.0106
551.3100	0.0153
551.5860	0.0129
551.8620	0.0160
552.1380	0.0137
552.4130	0.0121
552.6890	0.0075
552.9650	0.0075
553.2410	0.0086
553.5170	0.0129
553.7930	0.0111
554.0680	0.0102
554.3440	0.0119
554.6200	0.0171
554.8960	0.0123
555.1720	0.0085
555.4470	0.0132
555.7230	0.0129
555.9990	0.0107
556.2750	0.0105
556.5510	0.0155
556.8260	0.0136
557.1020	0.0103
557.3780	0.0134
557.6540	0.0147
557.9300	0.0129
558.2050	0.0115
558.4810	0.0090
558.7570	0.0117
559.0330	0.0105
559.3090	0.0150
559.5840	0.0157
559.8600	0.0157
560.1360	0.0141
560.4120	0.0118
560.6880	0.0104
560.9630	0.0119
561.2390	0.0244
561.5150	0.0169
561.7910	0.0100
562.0670	0.0125
562.3420	0.0155
562.6180	0.0122
562.8940	0.0059
563.1700	0.0123
563.4460	0.0129
563.7210	0.0061
563.9970	0.0073
564.2730	0.0126
564.5490	0.0161
564.8250	0.0141
565.1000	0.0202
565.3760	0.0167
565.6520	0.0141
565.9280	0.0159
566.2040	0.0098
566.4790	0.0128
566.7550	0.0145
567.0310	0.0121
567.3070	0.0077
567.5830	0.0112
567.8580	0.0115
568.1340	0.0094
568.4100	0.0077
568.6860	0.0137
568.9620	0.0114
569.2370	0.0157
569.5130	0.0100
569.7890	0.0133
570.0650	0.0123
570.3410	0.0103
570.6170	0.0106
570.8920	0.0137
571.1680	0.0140
571.4440	0.0121
571.7200	0.0112
571.9960	0.0158
572.2710	0.0200
572.5470	0.0133
572.8230	0.0087
573.0990	0.0137
573.3750	0.0220
573.6500	0.0157
573.9260	0.0109
574.2020	0.0121
574.4780	0.0139
574.7540	0.0115
575.0290	0.0106
575.3050	0.0166
575.5810	0.0125
575.8570	0.0081
576.1330	0.0076
576.4080	0.0120
576.6840	0.0159
576.9600	0.0144
577.2390	0.0109
577.5170	0.0125
577.7960	0.0155
578.0750	0.0171
578.3540	0.0095
578.6320	0.0084
578.9110	0.0164
579.1900	0.0200
579.4690	0.0155
579.7470	0.0148
580.0260	0.0149
580.3050	0.0112
580.5840	0.0142
580.8620	0.0117
581.1410	0.0139
581.4200	0.0137
581.6990	0.0119
581.9770	0.0158
582.2560	0.0156
582.5350	0.0163
582.8140	0.0136
583.0920	0.0153
583.3710	0.0154
583.6500	0.0137
583.9290	0.0125
584.2070	0.0119
584.4860	0.0159
584.7650	0.0161
585.0430	0.0081
585.3220	0.0153
585.6010	0.0184
585.8800	0.0143
586.1580	0.0099
586.4370	0.0093
586.7160	0.0131
586.9950	0.0142
587.2730	0.0115
587.5520	0.0130
587.8310	0.0161
588.1100	0.0171
588.3880	0.0093
588.6670	0.0068
588.9460	0.0078
589.2250	0.0054
589.5030	0.0056
589.7820	0.0074
590.0610	0.0101
590.3400	0.0152
590.6180	0.0196
590.8970	0.0237
591.1760	0.0187
591.4550	0.0129
591.7330	0.0121
592.0120	0.0157
592.2910	0.0199
592.5700	0.0141
592.8480	0.0164
593.1270	0.0118
593.4060	0.0126
593.6840	0.0084
593.9630	0.0098
594.2420	0.0140
594.5210	0.0133
594.7990	0.0128
595.0780	0.0124
595.3570	0.0125
595.6360	0.0126
595.9140	0.0128
596.1930	0.0106
596.4720	0.0123
596.7510	0.0149
597.0290	0.0151
597.3080	0.0140
597.5870	0.0099
597.8660	0.0116
598.1440	0.0115
598.4230	0.0096
598.7020	0.0094
598.9810	0.0129
599.2590	0.0164
599.5380	0.0138
599.8170	0.0106
