199.8780	0.0145
200.1320	0.0160
200.3850	-0.0015
200.6390	0.0046
200.8920	0.0160
201.1460	0.0096
201.4000	0.0038
201.6530	0.0071
201.9070	0.0152
202.1610	0.0012
202.4140	-0.0040
202.6680	0.0173
202.9220	0.0162
203.1750	0.0099
203.4290	0.0016
203.6830	0.0175
203.9360	0.0293
204.1900	0.0134
204.4430	0.0297
204.6970	0.0400
204.9510	0.0184
205.2040	0.0044
205.4580	0.0092
205.7120	0.0237
205.9650	0.0165
206.2190	0.0122
206.4730	0.0115
206.7260	0.0118
206.9800	0.0236
207.2330	0.0082
207.4870	-0.0053
207.7410	0.0084
207.9940	0.0181
208.2480	0.0146
208.5020	0.0055
208.7550	0.0118
209.0090	0.0275
209.2630	0.0291
209.5160	0.0080
209.7700	0.0050
210.0240	0.0146
210.2770	0.0098
210.5310	0.0003
210.7840	0.0009
211.0380	0.0055
211.2920	-0.0021
211.5450	-0.0018
211.7990	0.0245
212.0530	0.0364
212.3060	0.0251
212.5600	0.0063
212.8140	0.0072
213.0670	0.0108
213.3210	0.0095
213.5750	0.0092
213.8280	0.0198
214.0820	0.0351
214.3350	0.0170
214.5890	0.0068
214.8430	0.0115
215.0960	0.0307
215.3500	0.0193
215.6040	0.0140
215.8570	0.0107
216.1110	0.0163
216.3650	0.0047
216.6180	0.0003
216.8720	0.0104
217.1260	0.0093
217.3790	0.0136
217.6330	0.0033
217.8860	0.0109
218.1400	0.0139
218.3940	0.0044
218.6470	0.0013
218.9010	0.0051
219.1550	0.0164
219.4080	0.0039
219.6620	-0.0044
219.9160	0.0115
220.1690	0.0220
220.4230	0.0154
220.6770	0.0110
220.9300	0.0053
221.1840	0.0052
221.4370	-0.0019
221.6910	-0.0024
221.9450	0.0071
222.1980	0.0123
222.4520	0.0122
222.7060	0.0166
222.9590	0.0186
223.2130	0.0226
223.4670	0.0135
223.7200	0.0138
223.9740	0.0174
224.2280	0.0113
224.4810	0.0132
224.7350	0.0074
224.9880	0.0148
225.2420	0.0258
225.4960	0.0181
225.7490	0.0277
226.0030	0.0293
226.2570	0.0178
226.5100	0.0023
226.7640	0.0189
227.0180	0.0237
227.2710	0.0239
227.5250	0.0138
227.7790	0.0039
228.0320	0.0175
228.2860	0.0323
228.5390	0.0198
228.7930	0.0049
229.0470	0.0149
229.3000	0.0396
229.5540	0.0373
229.8080	0.0158
230.0610	0.0208
230.3150	0.0286
230.5690	0.0077
230.8220	0.0062
231.0760	0.0171
231.3300	0.0157
231.5830	0.0150
231.8370	0.0037
232.0900	0.0069
232.3440	0.0152
232.5980	0.0137
232.8510	0.0166
233.1050	0.0156
233.3590	0.0412
233.6120	0.0199
233.8660	0.0072
234.1200	0.0139
234.3730	0.0326
234.6270	0.0232
234.8800	0.0033
235.1340	0.0101
235.3880	0.0332
235.6410	0.0153
235.8950	-0.0010
236.1490	0.0087
236.4020	0.0180
236.6560	0.0163
236.9100	0.0000
237.1630	0.0157
237.4170	0.0178
237.6710	0.0012
237.9240	0.0060
238.1780	0.0171
238.4310	0.0161
238.6850	0.0072
238.9390	0.0142
239.1920	0.0129
239.4460	0.0287
239.7000	0.0179
239.9530	-0.0017
240.2070	0.0161
240.4610	0.0231
240.7140	0.0137
240.9680	0.0082
241.2220	0.0109
241.4750	0.0139
241.7290	0.0046
241.9820	0.0053
242.2360	0.0230
242.4900	0.0218
242.7430	0.0124
242.9970	0.0383
243.2510	0.0226
243.5040	0.0192
243.7580	0.0050
244.0120	0.0041
244.2650	0.0389
244.5190	0.0361
244.7730	0.0105
245.0260	0.0072
245.2800	0.0151
245.5330	0.0268
245.7870	0.0140
246.0410	0.0110
246.2940	0.0279
246.5480	0.0231
246.8020	0.0131
247.0550	0.0150
247.3090	0.0328
247.5630	0.0267
247.8160	0.0159
248.0700	0.0170
248.3240	0.0375
248.5770	0.0233
248.8310	0.0049
249.0840	0.0116
249.3380	0.0165
249.5920	0.0237
249.8450	0.0091
250.0990	0.0168
250.3530	0.0307
250.6060	0.0213
250.8600	0.0052
251.1140	-0.0017
251.3670	0.0235
251.6210	0.0257
251.8750	0.0148
252.1280	0.0277
252.3820	0.0321
252.6350	0.0257
252.8890	0.0169
253.1430	0.0057
253.3960	0.0172
253.6500	0.0213
253.9040	0.0091
254.1590	0.0019
254.4130	0.0208
254.6670	0.0367
254.9220	0.0353
255.1760	0.0360
255.4310	0.0216
255.6850	0.0208
255.9390	0.0208
256.1940	0.0050
256.4480	0.0107
256.7020	0.0187
256.9570	0.0189
257.2110	0.0162
257.4650	0.0274
257.7200	0.0562
257.9740	0.0349
258.2280	0.0218
258.4830	0.0160
258.7370	0.0162
258.9920	0.0159
259.2460	0.0127
259.5000	0.0178
259.7550	0.0307
260.0090	0.0262
260.2630	0.0137
260.5180	0.0224
260.7720	0.0284
261.0260	0.0133
261.2810	0.0052
261.5350	0.0125
261.7890	0.0189
262.0440	0.0093
262.2980	0.0199
262.5530	0.0237
262.8070	0.0175
263.0610	0.0080
263.3160	0.0146
263.5700	0.0284
263.8240	0.0194
264.0790	0.0123
264.3330	0.0043
264.5870	0.0097
264.8420	0.0389
265.0960	0.0270
265.3510	0.0323
265.6050	0.0372
265.8590	0.0258
266.1140	0.0138
266.3680	0.0148
266.6220	0.0195
266.8770	0.0251
267.1310	0.0188
267.3850	0.0237
267.6400	0.0198
267.8940	0.0202
268.1480	0.0094
268.4030	0.0119
268.6570	0.0172
268.9120	0.0162
269.1660	0.0083
269.4200	0.0126
269.6750	0.0239
269.9290	0.0255
270.1830	0.0218
270.4380	0.0208
270.6920	0.0268
270.9460	0.0262
271.2010	0.0393
271.4550	0.0170
271.7090	0.0106
271.9640	0.0220
272.2180	0.0093
272.4730	0.0010
272.7270	0.0221
272.9810	0.0317
273.2360	0.0212
273.4900	0.0141
273.7440	0.0213
273.9990	0.0305
274.2530	0.0136
274.5070	0.0045
274.7620	0.0165
275.0160	0.0220
275.2710	0.0208
275.5250	0.0153
275.7790	0.0155
276.0340	0.0174
276.2880	0.0117
276.5420	0.0182
276.7970	0.0287
277.0510	0.0301
277.3050	0.0339
277.5600	0.0196
277.8140	0.0203
278.0680	0.0332
278.3230	0.0170
278.5770	0.0175
278.8320	0.0350
279.0860	0.0373
279.3400	0.0362
279.5950	0.0216
279.8490	0.0274
280.1030	0.0268
280.3580	0.0212
280.6120	0.0188
280.8660	0.0228
281.1210	0.0273
281.3750	0.0125
281.6290	0.0059
281.8840	0.0267
282.1380	0.0394
282.3930	0.0262
282.6470	0.0214
282.9010	0.0267
283.1560	0.0225
283.4100	0.0268
283.6640	0.0185
283.9190	0.0215
284.1730	0.0204
284.4270	0.0163
284.6820	0.0132
284.9360	0.0231
285.1910	0.0293
285.4450	0.0244
285.6990	0.0157
285.9540	0.0128
286.2080	0.0242
286.4620	0.0271
286.7170	0.0148
286.9710	0.0304
287.2250	0.0459
287.4800	0.0171
287.7340	0.0010
287.9880	0.0248
288.2430	0.0434
288.4970	0.0185
288.7520	0.0101
289.0060	0.0358
289.2600	0.0247
289.5150	0.0140
289.7690	0.0118
290.0230	0.0255
290.2780	0.0305
290.5320	0.0254
290.7860	0.0163
291.0410	0.0329
291.2950	0.0371
291.5490	0.0168
291.8040	0.0154
292.0580	0.0266
292.3130	0.0245
292.5670	0.0182
292.8210	0.0139
293.0760	0.0279
293.3300	0.0396
293.5840	0.0415
293.8390	0.0201
294.0930	0.0147
294.3470	0.0240
294.6020	0.0228
294.8560	0.0178
295.1110	0.0128
295.3650	0.0183
295.6190	0.0227
295.8740	0.0178
296.1280	0.0228
296.3820	0.0374
296.6370	0.0344
296.8910	0.0149
297.1450	0.0250
297.4000	0.0510
297.6540	0.0363
297.9080	0.0231
298.1630	0.0242
298.4170	0.0220
298.6720	0.0106
298.9260	0.0136
299.1800	0.0248
299.4350	0.0300
299.6890	0.0158
299.9430	0.0088
300.1980	0.0253
300.4520	0.0399
300.7060	0.0318
300.9610	0.0336
301.2150	0.0298
301.4690	0.0379
301.7240	0.0258
301.9780	0.0230
302.2330	0.0334
302.4870	0.0438
302.7410	0.0398
302.9960	0.0220
303.2500	0.0336
303.5040	0.0500
303.7590	0.0311
304.0130	0.0328
304.2670	0.0498
304.5220	0.0385
304.7760	0.0245
305.0310	0.0177
305.2850	0.0236
305.5390	0.0302
305.7940	0.0281
306.0480	0.0201
306.3020	0.0440
306.5570	0.0392
306.8110	0.0314
307.0650	0.0313
307.3200	0.0399
307.5740	0.0337
307.8280	0.0193
308.0830	0.0217
308.3370	0.0264
308.5920	0.0334
308.8460	0.0403
309.1000	0.0287
309.3550	0.0498
309.6090	0.0537
309.8630	0.0334
310.1180	0.0166
310.3720	0.0300
310.6260	0.0374
310.8810	0.0271
311.1350	0.0267
311.3890	0.0371
311.6440	0.0363
311.8980	0.0245
312.1530	0.0321
312.4070	0.0504
312.6610	0.0515
312.9160	0.0310
313.1700	0.0170
313.4290	0.0381
313.6880	0.0474
313.9470	0.0362
314.2060	0.0223
314.4650	0.0344
314.7240	0.0404
314.9830	0.0405
315.2420	0.0310
315.5010	0.0343
315.7600	0.0368
316.0190	0.0423
316.2780	0.0342
316.5360	0.0303
316.7950	0.0381
317.0540	0.0360
317.3130	0.0609
317.5720	0.0532
317.8310	0.0455
318.0900	0.0304
318.3490	0.0266
318.6080	0.0531
318.8670	0.0486
319.1260	0.0478
319.3850	0.0353
319.6440	0.0525
319.9030	0.0502
320.1620	0.0310
320.4210	0.0200
320.6800	0.0268
320.9390	0.0490
321.1980	0.0329
321.4570	0.0269
321.7160	0.0334
321.9750	0.0468
322.2340	0.0462
322.4930	0.0416
322.7520	0.0525
323.0100	0.0576
323.2690	0.0486
323.5280	0.0390
323.7870	0.0386
324.0460	0.0346
324.3050	0.0364
324.5640	0.0252
324.8230	0.0306
325.0820	0.0374
325.3410	0.0366
325.6000	0.0258
325.8590	0.0233
326.1180	0.0334
326.3770	0.0326
326.6360	0.0342
326.8950	0.0583
327.1540	0.0564
327.4130	0.0276
327.6720	0.0232
327.9310	0.0494
328.1900	0.0566
328.4490	0.0474
328.7080	0.0292
328.9670	0.0317
329.2260	0.0370
329.4850	0.0407
329.7430	0.0485
330.0020	0.0566
330.2610	0.0474
330.5200	0.0371
330.7790	0.0325
331.0380	0.0370
331.2970	0.0294
331.5560	0.0163
331.8150	0.0159
332.0740	0.0258
332.3330	0.0338
332.5920	0.0300
332.8510	0.0226
333.1100	0.0293
333.3690	0.0296
333.6280	0.0201
333.8870	0.0371
334.1460	0.0434
334.4050	0.0499
334.6640	0.0417
334.9230	0.0238
335.1820	0.0314
335.4410	0.0382
335.7000	0.0366
335.9590	0.0295
336.2170	0.0270
336.4760	0.0349
336.7350	0.0370
336.9940	0.0301
337.2530	0.0426
337.5120	0.0397
337.7710	0.0346
338.0300	0.0363
338.2890	0.0474
338.5480	0.0367
338.8070	0.0282
339.0660	0.0322
339.3250	0.0306
339.5840	0.0345
339.8430	0.0317
340.1020	0.0281
340.3610	0.0338
340.6200	0.0411
340.8790	0.0395
341.1380	0.0345
341.3970	0.0320
341.6560	0.0308
341.9150	0.0245
342.1740	0.0355
342.4330	0.0359
342.6910	0.0347
342.9500	0.0303
343.2090	0.0192
343.4680	0.0377
343.7270	0.0372
343.9860	0.0251
344.2450	0.0192
344.5040	0.0381
344.7630	0.0471
345.0220	0.0269
345.2810	0.0182
345.5400	0.0273
345.7990	0.0338
346.0580	0.0322
346.3170	0.0275
346.5760	0.0420
346.8350	0.0376
347.0940	0.0211
347.3530	0.0195
347.6120	0.0265
347.8710	0.0408
348.1300	0.0368
348.3890	0.0276
348.6480	0.0372
348.9070	0.0346
349.1660	0.0225
349.4240	0.0197
349.6830	0.0296
349.9420	0.0436
350.2010	0.0361
350.4600	0.0327
350.7190	0.0405
350.9780	0.0377
351.2370	0.0252
351.4960	0.0174
351.7550	0.0322
352.0140	0.0394
352.2730	0.0248
352.5320	0.0227
352.7910	0.0403
353.0500	0.0352
353.3090	0.0198
353.5680	0.0166
353.8270	0.0286
354.0860	0.0409
354.3450	0.0402
354.6040	0.0255
354.8630	0.0348
355.1220	0.0395
355.3810	0.0365
355.6400	0.0271
355.8980	0.0535
356.1570	0.0584
356.4160	0.0362
356.6750	0.0395
356.9340	0.0417
357.1930	0.0438
357.4520	0.0397
357.7110	0.0347
357.9700	0.0416
358.2290	0.0384
358.4880	0.0384
358.7470	0.0230
359.0060	0.0305
359.2650	0.0451
359.5240	0.0286
359.7830	0.0236
360.0420	0.0277
360.3010	0.0463
360.5600	0.0331
360.8190	0.0262
361.0780	0.0281
361.3370	0.0342
361.5960	0.0331
361.8550	0.0238
362.1140	0.0365
362.3720	0.0437
362.6310	0.0247
362.8900	0.0258
363.1490	0.0342
363.4080	0.0440
363.6670	0.0351
363.9260	0.0255
364.1850	0.0303
364.4440	0.0340
364.7030	0.0237
364.9620	0.0309
365.2210	0.0527
365.4800	0.0463
365.7390	0.0420
365.9990	0.0385
366.2580	0.0354
366.5180	0.0330
366.7770	0.0236
367.0370	0.0378
367.2960	0.0372
367.5560	0.0395
367.8150	0.0389
368.0750	0.0364
368.3340	0.0368
368.5940	0.0368
368.8530	0.0406
369.1130	0.0311
369.3720	0.0296
369.6320	0.0441
369.8910	0.0360
370.1500	0.0230
370.4100	0.0392
370.6690	0.0467
370.9290	0.0262
371.1880	0.0217
371.4480	0.0345
371.7070	0.0517
371.9670	0.0335
372.2260	0.0247
372.4860	0.0572
372.7450	0.0517
373.0050	0.0434
373.2640	0.0254
373.5240	0.0302
373.7830	0.0321
374.0430	0.0432
374.3020	0.0333
374.5610	0.0446
374.8210	0.0384
375.0800	0.0339
375.3400	0.0387
375.5990	0.0409
375.8590	0.0477
376.1180	0.0335
376.3780	0.0249
376.6370	0.0451
376.8970	0.0458
377.1560	0.0291
377.4160	0.0264
377.6750	0.0280
377.9350	0.0391
378.1940	0.0401
378.4540	0.0394
378.7130	0.0438
378.9720	0.0414
379.2320	0.0346
379.4910	0.0312
379.7510	0.0362
380.0100	0.0429
380.2700	0.0311
380.5290	0.0252
380.7890	0.0400
381.0480	0.0438
381.3080	0.0325
381.5670	0.0279
381.8270	0.0349
382.0860	0.0299
382.3460	0.0277
382.6050	0.0204
382.8650	0.0325
383.1240	0.0455
383.3830	0.0383
383.6430	0.0471
383.9020	0.0466
384.1620	0.0383
384.4210	0.0233
384.6810	0.0449
384.9400	0.0671
385.2000	0.0544
385.4590	0.0399
385.7190	0.0285
385.9780	0.0290
386.2380	0.0387
386.4970	0.0314
386.7570	0.0207
387.0160	0.0415
387.2760	0.0520
387.5350	0.0404
387.7940	0.0408
388.0540	0.0402
388.3130	0.0461
388.5730	0.0315
388.8320	0.0274
389.0920	0.0347
389.3510	0.0382
389.6110	0.0338
389.8700	0.0372
390.1300	0.0467
390.3890	0.0504
390.6490	0.0339
390.9080	0.0208
391.1680	0.0397
391.4270	0.0583
391.6860	0.0529
391.9460	0.0353
392.2050	0.0428
392.4650	0.0528
392.7240	0.0393
392.9840	0.0446
393.2430	0.0543
393.5030	0.0512
393.7620	0.0411
394.0220	0.0294
394.2810	0.0304
394.5410	0.0350
394.8000	0.0369
395.0600	0.0318
395.3190	0.0408
395.5790	0.0378
395.8380	0.0265
396.0970	0.0338
396.3570	0.0565
396.6160	0.0444
396.8760	0.0306
397.1350	0.0260
397.3950	0.0272
397.6540	0.0381
397.9140	0.0648
398.1730	0.0529
398.4330	0.0504
398.6920	0.0541
398.9520	0.0485
399.2110	0.0338
399.4710	0.0566
399.7300	0.0498
399.9900	0.0414
400.2490	0.0348
400.5080	0.0331
400.7680	0.0350
401.0270	0.0344
401.2870	0.0408
401.5460	0.0437
401.8060	0.0460
402.0650	0.0518
402.3250	0.0400
402.5840	0.0609
402.8440	0.0510
403.1030	0.0341
403.3630	0.0615
403.6220	0.0480
403.8820	0.0406
404.1410	0.0392
404.4010	0.0594
404.6600	0.0517
404.9260	0.0388
405.1930	0.0361
405.4590	0.0345
405.7260	0.0311
405.9920	0.0305
406.2590	0.0297
406.5250	0.0256
406.7920	0.0443
407.0580	0.0461
407.3250	0.0278
407.5910	0.0312
407.8580	0.0431
408.1240	0.0489
408.3910	0.0320
408.6570	0.0270
408.9240	0.0362
409.1900	0.0420
409.4570	0.0526
409.7230	0.0391
409.9900	0.0444
410.2560	0.0586
410.5230	0.0347
410.7890	0.0263
411.0560	0.0385
411.3220	0.0363
411.5890	0.0243
411.8550	0.0346
412.1220	0.0417
412.3880	0.0386
412.6550	0.0256
412.9210	0.0205
413.1880	0.0413
413.4540	0.0635
413.7210	0.0359
413.9870	0.0297
414.2540	0.0376
414.5200	0.0376
414.7870	0.0260
415.0530	0.0338
415.3200	0.0444
415.5860	0.0469
415.8530	0.0371
416.1190	0.0300
416.3860	0.0371
416.6520	0.0332
416.9190	0.0330
417.1850	0.0248
417.4520	0.0423
417.7180	0.0564
417.9850	0.0447
418.2510	0.0313
418.5180	0.0384
418.7840	0.0355
419.0510	0.0300
419.3170	0.0298
419.5840	0.0408
419.8500	0.0441
420.1170	0.0329
420.3830	0.0236
420.6500	0.0282
420.9160	0.0382
421.1830	0.0265
421.4490	0.0291
421.7160	0.0407
421.9820	0.0478
422.2490	0.0366
422.5150	0.0429
422.7820	0.0509
423.0480	0.0499
423.3150	0.0514
423.5810	0.0404
423.8480	0.0582
424.1140	0.0655
424.3810	0.0387
424.6470	0.0397
424.9140	0.0426
425.1800	0.0404
425.4470	0.0430
425.7130	0.0448
425.9800	0.0635
426.2460	0.0770
426.5130	0.0471
426.7790	0.0242
427.0460	0.0321
427.3120	0.0473
427.5790	0.0325
427.8450	0.0303
428.1120	0.0428
428.3780	0.0529
428.6450	0.0799
428.9110	0.0461
429.1780	0.0365
429.4440	0.0399
429.7110	0.0341
429.9770	0.0227
430.2440	0.0399
430.5100	0.0460
430.7770	0.0422
431.0430	0.0373
431.3100	0.0436
431.5760	0.0418
431.8430	0.0526
432.1090	0.0441
432.3760	0.0383
432.6420	0.0440
432.9090	0.0370
433.1750	0.0298
433.4420	0.0335
433.7080	0.0630
433.9750	0.0720
434.2410	0.0539
434.5080	0.0526
434.7740	0.0483
435.0410	0.0454
435.3070	0.0324
435.5740	0.0410
435.8400	0.0530
436.1100	0.0618
436.3790	0.0513
436.6490	0.0512
436.9180	0.0552
437.1880	0.0597
437.4570	0.0471
437.7270	0.0387
437.9960	0.0448
438.2660	0.0329
438.5350	0.0368
438.8050	0.0523
439.0740	0.0531
439.3440	0.0459
439.6130	0.0448
439.8830	0.0373
440.1520	0.0440
440.4220	0.0462
440.6910	0.0437
440.9610	0.0431
441.2300	0.0428
441.5000	0.0411
441.7690	0.0325
442.0390	0.0316
442.3080	0.0388
442.5780	0.0519
442.8470	0.0429
443.1170	0.0551
443.3860	0.0455
443.6560	0.0337
443.9250	0.0285
444.1950	0.0555
444.4640	0.0560
444.7340	0.0352
445.0030	0.0264
445.2730	0.0395
445.5420	0.0531
445.8120	0.0420
446.0810	0.0453
446.3510	0.0606
446.6200	0.0532
446.8900	0.0394
447.1590	0.0306
447.4290	0.0433
447.6980	0.0612
447.9680	0.0414
448.2380	0.0400
448.5070	0.0484
448.7770	0.0472
449.0460	0.0372
449.3160	0.0432
449.5850	0.0517
449.8550	0.0534
450.1240	0.0465
450.3940	0.0443
450.6630	0.0468
450.9330	0.0473
451.2020	0.0345
451.4720	0.0364
451.7410	0.0531
452.0110	0.0463
452.2800	0.0335
452.5500	0.0326
452.8190	0.0351
453.0890	0.0493
453.3580	0.0415
453.6280	0.0322
453.8970	0.0383
454.1670	0.0487
454.4360	0.0416
454.7060	0.0332
454.9750	0.0364
455.2450	0.0450
455.5140	0.0445
455.7840	0.0278
456.0530	0.0374
456.3230	0.0392
456.5920	0.0307
456.8620	0.0394
457.1310	0.0504
457.4010	0.0487
457.6700	0.0320
457.9400	0.0377
458.2090	0.0379
458.4790	0.0596
458.7480	0.0465
459.0180	0.0230
459.2870	0.0353
459.5570	0.0439
459.8260	0.0673
460.0960	0.0838
460.3660	0.0693
460.6350	0.0517
460.9050	0.0499
461.1740	0.0321
461.4440	0.0447
461.7130	0.0451
461.9830	0.0291
462.2520	0.0210
462.5220	0.0312
462.7910	0.0366
463.0610	0.0285
463.3300	0.0440
463.6000	0.0514
463.8690	0.0464
464.1390	0.0280
464.4080	0.0217
464.6780	0.0328
464.9470	0.0396
465.2170	0.0383
465.4860	0.0358
465.7560	0.0372
466.0250	0.0478
466.2950	0.0367
466.5640	0.0367
466.8340	0.0472
467.1030	0.0665
467.3730	0.0424
467.6420	0.0295
467.9120	0.0342
468.1810	0.0388
468.4510	0.0278
468.7200	0.0279
468.9900	0.0374
469.2590	0.0592
469.5290	0.0549
469.7980	0.0310
470.0680	0.0337
470.3370	0.0403
470.6070	0.0280
470.8760	0.0273
471.1460	0.0463
471.4150	0.0538
471.6850	0.0394
471.9540	0.0344
472.2240	0.0368
472.4930	0.0378
472.7630	0.0366
473.0330	0.0453
473.3020	0.0693
473.5720	0.0498
473.8410	0.0253
474.1110	0.0297
474.3800	0.0358
474.6500	0.0386
474.9190	0.0383
475.1890	0.0269
475.4580	0.0432
475.7280	0.0464
475.9970	0.0537
476.2670	0.0413
476.5360	0.0387
476.8060	0.0460
477.0750	0.0317
477.3450	0.0375
477.6140	0.0427
477.8840	0.0607
478.1530	0.0426
478.4230	0.0273
478.6920	0.0377
478.9620	0.0391
479.2310	0.0249
479.5010	0.0245
479.7700	0.0432
480.0400	0.0560
480.3090	0.0342
480.5790	0.0212
480.8480	0.0295
481.1180	0.0548
481.3870	0.0432
481.6570	0.0420
481.9260	0.0404
482.1960	0.0373
482.4650	0.0334
482.7350	0.0347
483.0040	0.0420
483.2740	0.0397
483.5430	0.0354
483.8130	0.0235
484.0820	0.0323
484.3520	0.0426
484.6210	0.0433
484.8910	0.0326
485.1610	0.0326
485.4300	0.0556
485.7000	0.0372
485.9690	0.0263
486.2390	0.0355
486.5080	0.0491
486.7780	0.0386
487.0470	0.0287
487.3170	0.0322
487.5860	0.0364
487.8560	0.0289
488.1250	0.0309
488.3950	0.0299
488.6640	0.0344
488.9340	0.0390
489.2030	0.0280
489.4730	0.0294
489.7420	0.0361
490.0120	0.0259
490.2810	0.0215
490.5510	0.0338
490.8200	0.0441
491.0900	0.0513
491.3590	0.0394
491.6290	0.0341
491.8980	0.0514
492.1680	0.0438
492.4370	0.0249
492.7070	0.0285
492.9760	0.0538
493.2460	0.0354
493.5150	0.0286
493.7850	0.0433
494.0540	0.0528
494.3240	0.0436
494.5930	0.0255
494.8630	0.0273
495.1320	0.0391
495.4020	0.0508
495.6710	0.0346
495.9410	0.0318
496.2100	0.0447
496.4800	0.0372
496.7490	0.0399
497.0190	0.0393
497.2890	0.0451
497.5580	0.0339
497.8280	0.0389
498.0970	0.0420
498.3670	0.0494
498.6360	0.0422
498.9060	0.0314
499.1750	0.0322
499.4450	0.0374
499.7140	0.0285
499.9840	0.0235
500.2530	0.0287
500.5230	0.0372
500.7920	0.0365
501.0620	0.0307
501.3310	0.0454
501.6010	0.0493
501.8700	0.0417
502.1400	0.0341
502.4090	0.0325
502.6790	0.0347
502.9480	0.0338
503.2180	0.0320
503.4870	0.0612
503.7570	0.0478
504.0260	0.0334
504.2960	0.0310
504.5650	0.0435
504.8350	0.0417
505.1040	0.0326
505.3740	0.0405
505.6430	0.0372
505.9130	0.0620
506.1820	0.0552
506.4520	0.0362
506.7210	0.0681
506.9910	0.0676
507.2600	0.0348
507.5300	0.0324
507.7990	0.0341
508.0690	0.0350
508.3380	0.0406
508.6080	0.0340
508.8770	0.0388
509.1470	0.0478
509.4160	0.0398
509.6860	0.0266
509.9560	0.0467
510.2250	0.0547
510.4950	0.0342
510.7640	0.0268
511.0340	0.0394
511.3030	0.0447
511.5730	0.0335
511.8420	0.0233
512.1120	0.0386
512.3810	0.0434
512.6510	0.0304
512.9200	0.0237
513.1900	0.0360
513.4590	0.0336
513.7290	0.0287
513.9980	0.0362
514.2680	0.0441
514.5370	0.0968
514.8070	0.0719
515.0760	0.0374
515.3460	0.0371
515.6150	0.0320
515.8850	0.0351
516.1540	0.0412
516.4240	0.0408
516.6930	0.0409
516.9630	0.0310
517.2320	0.0316
517.5020	0.0352
517.7710	0.0320
518.0410	0.0333
518.3100	0.0350
518.5800	0.0344
518.8490	0.0580
519.1190	0.0436
519.3880	0.0315
519.6580	0.0435
519.9270	0.0376
520.1970	0.0238
520.4660	0.0222
520.7360	0.0297
521.0050	0.0394
521.2750	0.0315
521.5440	0.0373
521.8140	0.0327
522.0840	0.0395
522.3530	0.0392
522.6230	0.0240
522.8920	0.0300
523.1620	0.0390
523.4310	0.0412
523.7010	0.0335
523.9700	0.0322
524.2400	0.0290
524.5090	0.0282
524.7790	0.0216
525.0480	0.0223
525.3180	0.0385
525.5870	0.0276
525.8570	0.0216
526.1260	0.0417
526.3960	0.0424
526.6650	0.0296
526.9350	0.0242
527.2040	0.0289
527.4740	0.0358
527.7430	0.0307
528.0130	0.0258
528.2820	0.0287
528.5520	0.0331
528.8210	0.0326
529.0910	0.0320
529.3600	0.0310
529.6300	0.0339
529.8990	0.0272
530.1690	0.0264
530.4380	0.0398
530.7080	0.0481
530.9770	0.0377
531.2470	0.0314
531.5160	0.0460
531.7860	0.0444
532.0550	0.0253
532.3250	0.0200
532.5940	0.0345
532.8640	0.0419
533.1330	0.0337
533.4030	0.0226
533.6720	0.0304
533.9420	0.0444
534.2120	0.0292
534.4810	0.0203
534.7510	0.0312
535.0200	0.0660
535.2900	0.0464
535.5590	0.0263
535.8290	0.0339
536.0980	0.0489
536.3680	0.0408
536.6370	0.0298
536.9070	0.0441
537.1760	0.0471
537.4460	0.0402
537.7150	0.0312
537.9850	0.0339
538.2540	0.0389
538.5240	0.0368
538.7930	0.0394
539.0630	0.0357
539.3320	0.0434
539.6020	0.0400
539.8710	0.0322
540.1410	0.0399
540.4100	0.0484
540.6800	0.0338
540.9490	0.0317
541.2190	0.0390
541.4880	0.0547
541.7580	0.0520
542.0270	0.0357
542.2970	0.0348
542.5660	0.0389
542.8360	0.0243
543.1050	0.0229
543.3750	0.0323
543.6440	0.0360
543.9140	0.0287
544.1830	0.0244
544.4530	0.0387
544.7220	0.0368
544.9920	0.0239
545.2610	0.0279
545.5310	0.0369
545.8000	0.0387
546.0700	0.0318
546.3460	0.0267
546.6220	0.0323
546.8970	0.0333
547.1730	0.0319
547.4490	0.0244
547.7250	0.0401
548.0010	0.0411
548.2760	0.0349
548.5520	0.0304
548.8280	0.0335
549.1040	0.0393
549.3800	0.0346
549.6550	0.0367
549.9310	0.0448
550.2070	0.0552
550.4830	0.0357
550.7590	0.0243
551.0340	0.0303
551.3100	0.0416
551.5860	0.0309
551.8620	0.0394
552.1380	0.0383
552.4130	0.0323
552.6890	0.0239
552.9650	0.0217
553.2410	0.0271
553.5170	0.0359
553.7930	0.0285
554.0680	0.0242
554.3440	0.0312
554.6200	0.0456
554.8960	0.0324
555.1720	0.0205
555.4470	0.0324
555.7230	0.0333
555.9990	0.0269
556.2750	0.0253
556.5510	0.0386
556.8260	0.0371
557.1020	0.0281
557.3780	0.0333
557.6540	0.0367
557.9300	0.0347
558.2050	0.0298
558.4810	0.0244
558.7570	0.0318
559.0330	0.0338
559.3090	0.0420
559.5840	0.0397
559.8600	0.0386
560.1360	0.0358
560.4120	0.0293
560.6880	0.0257
560.9630	0.0292
561.2390	0.0670
561.5150	0.0467
561.7910	0.0260
562.0670	0.0319
562.3420	0.0392
562.6180	0.0296
562.8940	0.0182
563.1700	0.0336
563.4460	0.0352
563.7210	0.0216
563.9970	0.0209
564.2730	0.0323
564.5490	0.0416
564.8250	0.0345
565.1000	0.0517
565.3760	0.0446
565.6520	0.0363
565.9280	0.0396
566.2040	0.0265
566.4790	0.0340
566.7550	0.0377
567.0310	0.0299
567.3070	0.0234
567.5830	0.0303
567.8580	0.0356
568.1340	0.0270
568.4100	0.0208
568.6860	0.0371
568.9620	0.0358
569.2370	0.0439
569.5130	0.0309
569.7890	0.0365
570.0650	0.0378
570.3410	0.0301
570.6170	0.0264
570.8920	0.0342
571.1680	0.0355
571.4440	0.0304
571.7200	0.0273
571.9960	0.0404
572.2710	0.0528
572.5470	0.0341
572.8230	0.0218
573.0990	0.0350
573.3750	0.0580
573.6500	0.0406
573.9260	0.0261
574.2020	0.0308
574.4780	0.0359
574.7540	0.0290
575.0290	0.0254
575.3050	0.0417
575.5810	0.0374
575.8570	0.0259
576.1330	0.0226
576.4080	0.0321
576.6840	0.0408
576.9600	0.0366
577.2390	0.0264
577.5170	0.0314
577.7960	0.0388
578.0750	0.0428
578.3540	0.0287
578.6320	0.0296
578.9110	0.0445
579.1900	0.0511
579.4690	0.0390
579.7470	0.0368
580.0260	0.0377
580.3050	0.0274
580.5840	0.0341
580.8620	0.0355
581.1410	0.0387
581.4200	0.0329
581.6990	0.0277
581.9770	0.0396
582.2560	0.0392
582.5350	0.0409
582.8140	0.0335
583.0920	0.0375
583.3710	0.0390
583.6500	0.0334
583.9290	0.0297
584.2070	0.0333
584.4860	0.0427
584.7650	0.0394
585.0430	0.0252
585.3220	0.0433
585.6010	0.0477
585.8800	0.0357
586.1580	0.0262
586.4370	0.0294
586.7160	0.0368
586.9950	0.0352
587.2730	0.0279
587.5520	0.0324
587.8310	0.0399
588.1100	0.0430
588.3880	0.0282
588.6670	0.0252
588.9460	0.0282
589.2250	0.0210
589.5030	0.0180
589.7820	0.0251
590.0610	0.0297
590.3400	0.0402
590.6180	0.0525
590.8970	0.0646
591.1760	0.0485
591.4550	0.0311
591.7330	0.0276
592.0120	0.0376
592.2910	0.0507
592.5700	0.0367
592.8480	0.0411
593.1270	0.0349
593.4060	0.0355
593.6840	0.0269
593.9630	0.0276
594.2420	0.0353
594.5210	0.0335
594.7990	0.0314
595.0780	0.0292
595.3570	0.0313
595.6360	0.0319
595.9140	0.0302
596.1930	0.0253
596.4720	0.0298
596.7510	0.0373
597.0290	0.0375
597.3080	0.0339
597.5870	0.0303
597.8660	0.0334
598.1440	0.0280
598.4230	0.0227
598.7020	0.0280
598.9810	0.0346
599.2590	0.0416
599.5380	0.0342
599.8170	0.0293
