199.8780	0.0836
200.1320	0.0923
200.3850	-0.0026
200.6390	0.0029
200.8920	0.0423
201.1460	0.0203
201.4000	0.0118
201.6530	0.0102
201.9070	0.0391
202.1610	-0.0095
202.4140	-0.0247
202.6680	0.0533
202.9220	0.0362
203.1750	0.0290
203.4290	-0.0011
203.6830	0.0576
203.9360	0.1006
204.1900	0.0455
204.4430	0.1388
204.6970	0.1642
204.9510	0.0495
205.2040	0.0092
205.4580	0.0453
205.7120	0.1104
205.9650	0.0430
206.2190	0.0405
206.4730	0.0631
206.7260	0.0296
206.9800	0.0716
207.2330	0.0196
207.4870	-0.0305
207.7410	0.0168
207.9940	0.0564
208.2480	0.0604
208.5020	0.0177
208.7550	0.0235
209.0090	0.0945
209.2630	0.1248
209.5160	0.0322
209.7700	-0.0078
210.0240	0.0734
210.2770	0.0569
210.5310	-0.0085
210.7840	-0.0248
211.0380	-0.0101
211.2920	-0.0304
211.5450	-0.0153
211.7990	0.0894
212.0530	0.1477
212.3060	0.1136
212.5600	0.0222
212.8140	-0.0034
213.0670	0.0043
213.3210	0.0284
213.5750	0.0345
213.8280	0.0609
214.0820	0.1286
214.3350	0.0560
214.5890	0.0174
214.8430	0.0520
215.0960	0.1257
215.3500	0.0762
215.6040	0.0644
215.8570	0.0250
216.1110	0.0350
216.3650	0.0005
216.6180	-0.0046
216.8720	0.0204
217.1260	0.0020
217.3790	0.0666
217.6330	0.0180
217.8860	0.0238
218.1400	0.0247
218.3940	-0.0002
218.6470	-0.0039
218.9010	-0.0054
219.1550	0.0270
219.4080	-0.0089
219.6620	-0.0335
219.9160	0.0213
220.1690	0.0634
220.4230	0.0590
220.6770	0.0570
220.9300	0.0119
221.1840	-0.0125
221.4370	-0.0304
221.6910	-0.0301
221.9450	-0.0081
222.1980	0.0057
222.4520	0.0366
222.7060	0.0773
222.9590	0.0510
223.2130	0.0646
223.4670	0.0480
223.7200	0.0624
223.9740	0.0628
224.2280	0.0146
224.4810	0.0404
224.7350	0.0230
224.9880	0.0419
225.2420	0.1221
225.4960	0.0944
225.7490	0.1341
226.0030	0.1163
226.2570	0.0451
226.5100	-0.0101
226.7640	0.0862
227.0180	0.0882
227.2710	0.0756
227.5250	0.0470
227.7790	0.0069
228.0320	0.0514
228.2860	0.1156
228.5390	0.0847
228.7930	0.0179
229.0470	0.0467
229.3000	0.1511
229.5540	0.1538
229.8080	0.0645
230.0610	0.0739
230.3150	0.1006
230.5690	0.0181
230.8220	0.0185
231.0760	0.0413
231.3300	0.0291
231.5830	0.0524
231.8370	0.0064
232.0900	-0.0039
232.3440	0.0131
232.5980	0.0322
232.8510	0.0712
233.1050	0.0387
233.3590	0.1457
233.6120	0.0683
233.8660	0.0296
234.1200	0.0336
234.3730	0.1119
234.6270	0.0950
234.8800	0.0030
235.1340	0.0065
235.3880	0.1033
235.6410	0.0444
235.8950	-0.0187
236.1490	0.0009
236.4020	0.0405
236.6560	0.0661
236.9100	0.0022
237.1630	0.0492
237.4170	0.0392
237.6710	-0.0182
237.9240	0.0251
238.1780	0.0503
238.4310	0.0289
238.6850	0.0058
238.9390	0.0451
239.1920	0.0245
239.4460	0.1008
239.7000	0.0655
239.9530	-0.0156
240.2070	0.0669
240.4610	0.0724
240.7140	0.0345
240.9680	0.0290
241.2220	0.0159
241.4750	0.0135
241.7290	-0.0075
241.9820	0.0144
242.2360	0.0824
242.4900	0.0580
242.7430	0.0321
242.9970	0.1676
243.2510	0.0826
243.5040	0.0432
243.7580	0.0042
244.0120	0.0146
244.2650	0.1653
244.5190	0.1374
244.7730	0.0244
245.0260	0.0256
245.2800	0.0422
245.5330	0.0880
245.7870	0.0377
246.0410	0.0434
246.2940	0.1013
246.5480	0.0561
246.8020	0.0267
247.0550	0.0519
247.3090	0.1162
247.5630	0.1084
247.8160	0.0724
248.0700	0.0786
248.3240	0.1480
248.5770	0.0671
248.8310	-0.0072
249.0840	0.0382
249.3380	0.0460
249.5920	0.0776
249.8450	0.0231
250.0990	0.0712
250.3530	0.1166
250.6060	0.0548
250.8600	-0.0029
251.1140	-0.0231
251.3670	0.1038
251.6210	0.0878
251.8750	0.0429
252.1280	0.0747
252.3820	0.0847
252.6350	0.0672
252.8890	0.0437
253.1430	0.0016
253.3960	0.0474
253.6500	0.0938
253.9040	0.0345
254.1590	-0.0102
254.4130	0.0605
254.6670	0.1255
254.9220	0.1406
255.1760	0.1460
255.4310	0.0591
255.6850	0.0583
255.9390	0.0784
256.1940	0.0129
256.4480	0.0032
256.7020	0.0221
256.9570	0.0525
257.2110	0.0692
257.4650	0.0919
257.7200	0.2217
257.9740	0.1325
258.2280	0.0830
258.4830	0.0411
258.7370	0.0239
258.9920	0.0458
259.2460	0.0471
259.5000	0.0477
259.7550	0.0940
260.0090	0.1012
260.2630	0.0412
260.5180	0.0738
260.7720	0.0649
261.0260	0.0161
261.2810	-0.0001
261.5350	0.0121
261.7890	0.0260
262.0440	0.0015
262.2980	0.1027
262.5530	0.0872
262.8070	0.0273
263.0610	-0.0017
263.3160	0.0535
263.5700	0.0946
263.8240	0.0412
264.0790	0.0453
264.3330	0.0165
264.5870	0.0038
264.8420	0.1402
265.0960	0.1002
265.3510	0.1237
265.6050	0.1349
265.8590	0.0818
266.1140	0.0431
266.3680	0.0667
266.6220	0.0605
266.8770	0.0682
267.1310	0.0482
267.3850	0.0873
267.6400	0.0523
267.8940	0.0350
268.1480	0.0069
268.4030	0.0347
268.6570	0.0428
268.9120	0.0235
269.1660	0.0075
269.4200	0.0433
269.6750	0.0762
269.9290	0.0693
270.1830	0.0763
270.4380	0.0783
270.6920	0.0647
270.9460	0.0498
271.2010	0.1475
271.4550	0.0657
271.7090	0.0098
271.9640	0.0415
272.2180	0.0084
272.4730	-0.0174
272.7270	0.0616
272.9810	0.1040
273.2360	0.0314
273.4900	0.0215
273.7440	0.0742
273.9990	0.0959
274.2530	0.0292
274.5070	-0.0040
274.7620	0.0255
275.0160	0.0378
275.2710	0.0662
275.5250	0.0475
275.7790	0.0243
276.0340	0.0198
276.2880	0.0099
276.5420	0.0875
276.7970	0.1062
277.0510	0.0862
277.3050	0.1344
277.5600	0.0694
277.8140	0.0389
278.0680	0.1000
278.3230	0.0435
278.5770	0.0536
278.8320	0.1531
279.0860	0.1459
279.3400	0.1489
279.5950	0.0897
279.8490	0.0882
280.1030	0.0659
280.3580	0.0710
280.6120	0.0783
280.8660	0.0608
281.1210	0.0637
281.3750	0.0192
281.6290	-0.0020
281.8840	0.0812
282.1380	0.1817
282.3930	0.1187
282.6470	0.0778
282.9010	0.0834
283.1560	0.0459
283.4100	0.0925
283.6640	0.0541
283.9190	0.0445
284.1730	0.0353
284.4270	0.0421
284.6820	0.0328
284.9360	0.0583
285.1910	0.0724
285.4450	0.0752
285.6990	0.0452
285.9540	0.0193
286.2080	0.0699
286.4620	0.0983
286.7170	0.0463
286.9710	0.1307
287.2250	0.1766
287.4800	0.0546
287.7340	-0.0112
287.9880	0.0745
288.2430	0.1520
288.4970	0.0558
288.7520	0.0187
289.0060	0.1196
289.2600	0.0727
289.5150	0.0330
289.7690	0.0248
290.0230	0.0680
290.2780	0.1066
290.5320	0.0958
290.7860	0.0504
291.0410	0.1036
291.2950	0.1229
291.5490	0.0414
291.8040	0.0398
292.0580	0.0720
292.3130	0.0487
292.5670	0.0343
292.8210	0.0297
293.0760	0.0808
293.3300	0.1240
293.5840	0.1588
293.8390	0.0633
294.0930	0.0161
294.3470	0.0377
294.6020	0.0610
294.8560	0.0525
295.1110	0.0270
295.3650	0.0265
295.6190	0.0617
295.8740	0.0474
296.1280	0.0532
296.3820	0.1194
296.6370	0.1232
296.8910	0.0415
297.1450	0.0583
297.4000	0.1674
297.6540	0.1267
297.9080	0.0847
298.1630	0.0569
298.4170	0.0331
298.6720	0.0057
298.9260	0.0295
299.1800	0.0546
299.4350	0.0693
299.6890	0.0294
299.9430	0.0260
300.1980	0.0694
300.4520	0.1200
300.7060	0.1026
300.9610	0.1272
301.2150	0.0801
301.4690	0.1115
301.7240	0.0699
301.9780	0.0675
302.2330	0.0902
302.4870	0.1320
302.7410	0.1374
302.9960	0.0568
303.2500	0.0929
303.5040	0.1620
303.7590	0.0851
304.0130	0.0926
304.2670	0.1640
304.5220	0.1020
304.7760	0.0453
305.0310	0.0220
305.2850	0.0224
305.5390	0.0435
305.7940	0.0183
306.0480	0.0024
306.3020	0.1190
306.5570	0.0881
306.8110	0.0644
307.0650	0.0694
307.3200	0.0950
307.5740	0.0595
307.8280	0.0131
308.0830	0.0241
308.3370	0.0296
308.5920	0.0446
308.8460	0.0904
309.1000	0.0601
309.3550	0.1369
309.6090	0.1366
309.8630	0.0530
310.1180	0.0045
310.3720	0.0407
310.6260	0.0535
310.8810	0.0244
311.1350	0.0281
311.3890	0.0681
311.6440	0.0639
311.8980	0.0198
312.1530	0.0650
312.4070	0.1214
312.6610	0.1165
312.9160	0.0485
313.1700	0.0035
313.4290	0.0605
313.6880	0.1028
313.9470	0.0635
314.2060	0.0150
314.4650	0.0455
314.7240	0.0589
314.9830	0.0840
315.2420	0.0457
315.5010	0.0374
315.7600	0.0450
316.0190	0.0943
316.2780	0.0643
316.5360	0.0331
316.7950	0.0567
317.0540	0.0995
317.3130	0.2087
317.5720	0.1305
317.8310	0.0846
318.0900	0.0388
318.3490	0.0200
318.6080	0.1324
318.8670	0.0979
319.1260	0.1129
319.3850	0.0683
319.6440	0.1281
319.9030	0.1064
320.1620	0.0328
320.4210	0.0165
320.6800	0.0280
320.9390	0.1123
321.1980	0.0595
321.4570	0.0396
321.7160	0.0505
321.9750	0.1017
322.2340	0.1227
322.4930	0.1151
322.7520	0.1445
323.0100	0.1485
323.2690	0.1394
323.5280	0.1070
323.7870	0.0770
324.0460	0.0485
324.3050	0.0891
324.5640	0.0503
324.8230	0.0479
325.0820	0.0672
325.3410	0.0883
325.6000	0.0509
325.8590	0.0292
326.1180	0.0619
326.3770	0.0712
326.6360	0.0919
326.8950	0.1787
327.1540	0.1606
327.4130	0.0533
327.6720	0.0709
327.9310	0.1594
328.1900	0.1795
328.4490	0.1570
328.7080	0.0746
328.9670	0.0527
329.2260	0.0599
329.4850	0.1087
329.7430	0.1633
330.0020	0.1859
330.2610	0.1216
330.5200	0.0948
330.7790	0.0981
331.0380	0.0956
331.2970	0.0524
331.5560	0.0128
331.8150	0.0111
332.0740	0.0331
332.3330	0.0561
332.5920	0.0612
332.8510	0.0360
333.1100	0.0353
333.3690	0.0368
333.6280	0.0182
333.8870	0.1067
334.1460	0.1146
334.4050	0.0924
334.6640	0.1004
334.9230	0.0504
335.1820	0.0556
335.4410	0.0759
335.7000	0.0980
335.9590	0.0772
336.2170	0.0443
336.4760	0.0609
336.7350	0.0946
336.9940	0.0724
337.2530	0.1369
337.5120	0.0971
337.7710	0.0851
338.0300	0.1063
338.2890	0.1382
338.5480	0.0792
338.8070	0.0580
339.0660	0.0898
339.3250	0.0627
339.5840	0.0595
339.8430	0.0627
340.1020	0.0548
340.3610	0.0608
340.6200	0.0880
340.8790	0.1085
341.1380	0.0955
341.3970	0.0614
341.6560	0.0451
341.9150	0.0335
342.1740	0.0920
342.4330	0.0759
342.6910	0.0562
342.9500	0.0562
343.2090	0.0253
343.4680	0.0912
343.7270	0.0762
343.9860	0.0313
344.2450	0.0140
344.5040	0.0825
344.7630	0.1173
345.0220	0.0988
345.2810	0.0451
345.5400	0.0359
345.7990	0.0514
346.0580	0.0632
346.3170	0.0518
346.5760	0.1044
346.8350	0.0769
347.0940	0.0220
347.3530	0.0212
347.6120	0.0337
347.8710	0.0822
348.1300	0.0859
348.3890	0.0516
348.6480	0.0754
348.9070	0.0625
349.1660	0.0234
349.4240	0.0172
349.6830	0.0372
349.9420	0.0927
350.2010	0.0791
350.4600	0.0817
350.7190	0.1018
350.9780	0.0712
351.2370	0.0317
351.4960	0.0133
351.7550	0.0605
352.0140	0.0791
352.2730	0.0335
352.5320	0.0314
352.7910	0.0917
353.0500	0.0672
353.3090	0.0199
353.5680	0.0129
353.8270	0.0421
354.0860	0.0735
354.3450	0.0974
354.6040	0.0494
354.8630	0.0654
355.1220	0.0744
355.3810	0.0809
355.6400	0.0524
355.8980	0.1639
356.1570	0.1852
356.4160	0.0870
356.6750	0.1205
356.9340	0.1110
357.1930	0.0954
357.4520	0.0989
357.7110	0.0902
357.9700	0.0953
358.2290	0.0699
358.4880	0.0897
358.7470	0.0461
359.0060	0.0582
359.2650	0.1043
359.5240	0.0523
359.7830	0.0354
360.0420	0.0395
360.3010	0.1217
360.5600	0.0721
360.8190	0.0555
361.0780	0.0534
361.3370	0.0688
361.5960	0.0847
361.8550	0.0428
362.1140	0.0870
362.3720	0.1069
362.6310	0.0442
362.8900	0.0526
363.1490	0.0655
363.4080	0.1250
363.6670	0.0910
363.9260	0.0382
364.1850	0.0411
364.4440	0.0511
364.7030	0.0275
364.9620	0.0721
365.2210	0.1508
365.4800	0.1078
365.7390	0.1053
365.9990	0.1036
366.2580	0.0683
366.5180	0.0508
366.7770	0.0274
367.0370	0.1091
367.2960	0.0891
367.5560	0.0782
367.8150	0.0851
368.0750	0.1142
368.3340	0.0842
368.5940	0.0600
368.8530	0.0968
369.1130	0.0639
369.3720	0.0434
369.6320	0.1077
369.8910	0.0831
370.1500	0.0295
370.4100	0.0949
370.6690	0.1163
370.9290	0.0469
371.1880	0.0254
371.4480	0.0526
371.7070	0.1266
371.9670	0.0693
372.2260	0.0326
372.4860	0.1597
372.7450	0.1229
373.0050	0.1090
373.2640	0.0534
373.5240	0.0466
373.7830	0.0498
374.0430	0.1152
374.3020	0.0739
374.5610	0.1095
374.8210	0.0854
375.0800	0.0675
375.3400	0.1238
375.5990	0.1097
375.8590	0.1143
376.1180	0.0674
376.3780	0.0325
376.6370	0.1084
376.8970	0.1071
377.1560	0.0449
377.4160	0.0366
377.6750	0.0422
377.9350	0.0830
378.1940	0.1000
378.4540	0.0995
378.7130	0.1130
378.9720	0.0881
379.2320	0.0614
379.4910	0.0625
379.7510	0.0669
380.0100	0.0898
380.2700	0.0558
380.5290	0.0381
380.7890	0.0875
381.0480	0.0945
381.3080	0.0607
381.5670	0.0449
381.8270	0.0571
382.0860	0.0465
382.3460	0.0445
382.6050	0.0268
382.8650	0.0584
383.1240	0.0997
383.3830	0.0748
383.6430	0.1355
383.9020	0.1110
384.1620	0.0609
384.4210	0.0289
384.6810	0.1356
384.9400	0.2150
385.2000	0.1407
385.4590	0.0951
385.7190	0.0523
385.9780	0.0403
386.2380	0.0771
386.4970	0.0624
386.7570	0.0259
387.0160	0.0982
387.2760	0.1364
387.5350	0.0950
387.7940	0.1096
388.0540	0.0886
388.3130	0.1072
388.5730	0.0614
388.8320	0.0464
389.0920	0.0595
389.3510	0.0604
389.6110	0.0613
389.8700	0.0844
390.1300	0.1109
390.3890	0.1254
390.6490	0.0651
390.9080	0.0221
391.1680	0.0715
391.4270	0.1485
391.6860	0.1553
391.9460	0.0882
392.2050	0.0974
392.4650	0.1381
392.7240	0.0858
392.9840	0.1205
393.2430	0.1508
393.5030	0.1258
393.7620	0.1013
394.0220	0.0534
394.2810	0.0419
394.5410	0.0533
394.8000	0.0822
395.0600	0.0661
395.3190	0.0817
395.5790	0.0649
395.8380	0.0335
396.0970	0.0712
396.3570	0.1641
396.6160	0.1031
396.8760	0.0414
397.1350	0.0331
397.3950	0.0404
397.6540	0.0779
397.9140	0.2119
398.1730	0.1709
398.4330	0.1375
398.6920	0.1399
398.9520	0.1271
399.2110	0.0680
399.4710	0.1257
399.7300	0.0978
399.9900	0.1040
400.2490	0.0747
400.5080	0.0516
400.7680	0.0522
401.0270	0.0533
401.2870	0.1041
401.5460	0.0980
401.8060	0.0987
402.0650	0.2023
402.3250	0.1393
402.5840	0.1820
402.8440	0.1233
403.1030	0.0552
403.3630	0.2001
403.6220	0.1313
403.8820	0.0810
404.1410	0.0899
404.4010	0.1981
404.6600	0.1384
404.9260	0.0684
405.1930	0.0770
405.4590	0.0820
405.7260	0.0609
405.9920	0.0472
406.2590	0.0440
406.5250	0.0339
406.7920	0.1016
407.0580	0.0938
407.3250	0.0395
407.5910	0.0735
407.8580	0.1091
408.1240	0.1250
408.3910	0.0645
408.6570	0.0465
408.9240	0.0624
409.1900	0.0795
409.4570	0.1577
409.7230	0.1062
409.9900	0.1069
410.2560	0.1716
410.5230	0.0835
410.7890	0.0429
411.0560	0.0725
411.3220	0.0643
411.5890	0.0318
411.8550	0.1017
412.1220	0.1014
412.3880	0.0672
412.6550	0.0353
412.9210	0.0230
413.1880	0.0948
413.4540	0.1867
413.7210	0.0912
413.9870	0.0599
414.2540	0.0818
414.5200	0.0700
414.7870	0.0358
415.0530	0.0817
415.3200	0.0965
415.5860	0.0967
415.8530	0.0750
416.1190	0.0580
416.3860	0.0703
416.6520	0.0579
416.9190	0.0640
417.1850	0.0404
417.4520	0.0976
417.7180	0.1573
417.9850	0.0786
418.2510	0.0379
418.5180	0.0751
418.7840	0.0664
419.0510	0.0512
419.3170	0.0529
419.5840	0.0775
419.8500	0.0894
420.1170	0.0622
420.3830	0.0335
420.6500	0.0400
420.9160	0.0729
421.1830	0.0457
421.4490	0.0891
421.7160	0.0992
421.9820	0.1028
422.2490	0.0737
422.5150	0.1209
422.7820	0.1365
423.0480	0.1193
423.3150	0.1498
423.5810	0.1081
423.8480	0.1709
424.1140	0.1950
424.3810	0.0862
424.6470	0.1022
424.9140	0.1257
425.1800	0.0900
425.4470	0.0874
425.7130	0.1253
425.9800	0.1994
426.2460	0.2520
426.5130	0.1268
426.7790	0.0362
427.0460	0.0530
427.3120	0.1081
427.5790	0.0644
427.8450	0.0636
428.1120	0.0890
428.3780	0.1211
428.6450	0.2650
428.9110	0.1365
429.1780	0.0754
429.4440	0.0756
429.7110	0.0640
429.9770	0.0353
430.2440	0.0880
430.5100	0.0888
430.7770	0.0912
431.0430	0.1171
431.3100	0.1124
431.5760	0.0774
431.8430	0.1476
432.1090	0.1221
432.3760	0.0717
432.6420	0.1186
432.9090	0.0878
433.1750	0.0447
433.4420	0.0500
433.7080	0.1742
433.9750	0.2313
434.2410	0.1530
434.5080	0.1309
434.7740	0.0986
435.0410	0.1092
435.3070	0.0656
435.5740	0.0824
435.8400	0.1186
436.1100	0.1829
436.3790	0.1475
436.6490	0.1278
436.9180	0.1398
437.1880	0.1700
437.4570	0.1296
437.7270	0.0744
437.9960	0.0917
438.2660	0.0593
438.5350	0.0822
438.8050	0.1310
439.0740	0.1271
439.3440	0.1104
439.6130	0.1279
439.8830	0.0839
440.1520	0.0915
440.4220	0.1132
440.6910	0.1123
440.9610	0.0901
441.2300	0.0799
441.5000	0.0974
441.7690	0.0680
442.0390	0.0500
442.3080	0.0671
442.5780	0.1267
442.8470	0.1112
443.1170	0.1548
443.3860	0.1041
443.6560	0.0678
443.9250	0.0486
444.1950	0.1560
444.4640	0.1540
444.7340	0.0712
445.0030	0.0406
445.2730	0.0833
445.5420	0.1425
445.8120	0.1084
446.0810	0.1614
446.3510	0.2061
446.6200	0.1406
446.8900	0.0901
447.1590	0.0599
447.4290	0.1036
447.6980	0.1856
447.9680	0.1051
448.2380	0.1116
448.5070	0.1289
448.7770	0.1037
449.0460	0.0747
449.3160	0.1220
449.5850	0.1498
449.8550	0.1416
450.1240	0.1274
450.3940	0.1046
450.6630	0.1017
450.9330	0.1009
451.2020	0.0667
451.4720	0.0933
451.7410	0.1496
452.0110	0.1057
452.2800	0.0446
452.5500	0.0601
452.8190	0.0661
453.0890	0.1230
453.3580	0.0985
453.6280	0.0711
453.8970	0.0880
454.1670	0.1214
454.4360	0.1026
454.7060	0.0717
454.9750	0.0674
455.2450	0.0919
455.5140	0.1135
455.7840	0.0591
456.0530	0.0877
456.3230	0.0821
456.5920	0.0555
456.8620	0.1412
457.1310	0.1535
457.4010	0.1158
457.6700	0.0573
457.9400	0.1033
458.2090	0.0874
458.4790	0.0734
458.7480	0.0686
459.0180	0.0368
459.2870	0.0750
459.5570	0.0914
459.8260	0.2165
460.0960	0.2974
460.3660	0.2265
460.6350	0.1332
460.9050	0.1427
461.1740	0.0777
461.4440	0.0715
461.7130	0.0865
461.9830	0.0496
462.2520	0.0272
462.5220	0.0797
462.7910	0.0811
463.0610	0.0462
463.3300	0.1352
463.6000	0.1448
463.8690	0.1078
464.1390	0.0525
464.4080	0.0297
464.6780	0.0534
464.9470	0.0784
465.2170	0.0922
465.4860	0.0945
465.7560	0.0797
466.0250	0.1174
466.2950	0.0810
466.5640	0.0972
466.8340	0.1271
467.1030	0.1987
467.3730	0.1156
467.6420	0.0686
467.9120	0.0672
468.1810	0.0782
468.4510	0.0486
468.7200	0.0540
468.9900	0.0751
469.2590	0.1681
469.5290	0.1665
469.7980	0.0708
470.0680	0.0564
470.3370	0.0769
470.6070	0.0456
470.8760	0.0548
471.1460	0.1267
471.4150	0.1474
471.6850	0.0903
471.9540	0.0922
472.2240	0.0875
472.4930	0.0749
472.7630	0.0807
473.0330	0.1447
473.3020	0.2256
473.5720	0.1273
473.8410	0.0378
474.1110	0.0571
474.3800	0.0669
474.6500	0.0721
474.9190	0.0880
475.1890	0.0517
475.4580	0.1086
475.7280	0.1096
475.9970	0.1702
476.2670	0.1224
476.5360	0.0804
476.8060	0.1039
477.0750	0.0618
477.3450	0.1028
477.6140	0.0962
477.8840	0.1765
478.1530	0.1110
478.4230	0.0494
478.6920	0.1329
478.9620	0.1082
479.2310	0.1108
479.5010	0.0847
479.7700	0.1050
480.0400	0.1564
480.3090	0.0797
480.5790	0.0294
480.8480	0.0466
481.1180	0.1535
481.3870	0.1115
481.6570	0.1114
481.9260	0.0911
482.1960	0.0673
482.4650	0.0474
482.7350	0.0703
483.0040	0.0945
483.2740	0.0806
483.5430	0.0744
483.8130	0.0433
484.0820	0.0558
484.3520	0.0853
484.6210	0.0547
484.8910	0.0452
485.1610	0.0643
485.4300	0.1681
485.7000	0.1008
485.9690	0.0609
486.2390	0.0716
486.5080	0.1207
486.7780	0.0994
487.0470	0.0580
487.3170	0.0564
487.5860	0.0727
487.8560	0.0526
488.1250	0.0688
488.3950	0.0676
488.6640	0.0656
488.9340	0.0931
489.2030	0.0588
489.4730	0.0501
489.7420	0.0674
490.0120	0.0431
490.2810	0.0315
490.5510	0.0649
490.8200	0.1012
491.0900	0.1844
491.3590	0.1277
491.6290	0.0705
491.8980	0.1394
492.1680	0.1159
492.4370	0.0450
492.7070	0.0456
492.9760	0.1531
493.2460	0.0921
493.5150	0.0665
493.7850	0.1199
494.0540	0.1489
494.3240	0.1087
494.5930	0.0470
494.8630	0.0453
495.1320	0.0822
495.4020	0.1623
495.6710	0.0973
495.9410	0.0580
496.2100	0.1157
496.4800	0.0956
496.7490	0.1174
497.0190	0.0967
497.2890	0.1242
497.5580	0.0798
497.8280	0.0862
498.0970	0.0888
498.3670	0.1202
498.6360	0.1115
498.9060	0.0855
499.1750	0.0675
499.4450	0.0699
499.7140	0.0488
499.9840	0.0370
500.2530	0.0496
500.5230	0.0817
500.7920	0.0692
501.0620	0.0565
501.3310	0.1295
501.6010	0.1369
501.8700	0.1109
502.1400	0.0821
502.4090	0.0604
502.6790	0.0614
502.9480	0.0763
503.2180	0.0853
503.4870	0.2058
503.7570	0.1344
504.0260	0.0761
504.2960	0.0765
504.5650	0.1223
504.8350	0.0978
505.1040	0.0703
505.3740	0.1265
505.6430	0.0946
505.9130	0.1867
506.1820	0.1684
506.4520	0.0904
506.7210	0.2109
506.9910	0.1922
507.2600	0.0738
507.5300	0.0762
507.7990	0.0727
508.0690	0.0636
508.3380	0.1176
508.6080	0.0893
508.8770	0.0934
509.1470	0.1257
509.4160	0.1013
509.6860	0.0531
509.9560	0.1299
510.2250	0.1585
510.4950	0.0796
510.7640	0.0525
511.0340	0.0873
511.3030	0.1082
511.5730	0.0728
511.8420	0.0390
512.1120	0.0945
512.3810	0.1090
512.6510	0.0627
512.9200	0.0409
513.1900	0.0943
513.4590	0.0776
513.7290	0.0683
513.9980	0.1150
514.2680	0.1345
514.5370	0.3193
514.8070	0.2390
515.0760	0.1175
515.3460	0.0897
515.6150	0.0624
515.8850	0.1210
516.1540	0.1474
516.4240	0.1048
516.6930	0.0965
516.9630	0.0699
517.2320	0.0829
517.5020	0.0803
517.7710	0.0597
518.0410	0.0816
518.3100	0.0996
518.5800	0.0950
518.8490	0.1895
519.1190	0.1261
519.3880	0.0785
519.6580	0.1301
519.9270	0.0918
520.1970	0.0419
520.4660	0.0412
520.7360	0.0580
521.0050	0.0945
521.2750	0.0707
521.5440	0.1107
521.8140	0.0851
522.0840	0.0995
522.3530	0.1095
522.6230	0.0550
522.8920	0.0853
523.1620	0.1072
523.4310	0.1234
523.7010	0.0984
523.9700	0.0762
524.2400	0.0582
524.5090	0.0648
524.7790	0.0439
525.0480	0.0386
525.3180	0.0981
525.5870	0.0649
525.8570	0.0401
526.1260	0.1212
526.3960	0.1102
526.6650	0.0632
526.9350	0.0521
527.2040	0.0582
527.4740	0.0797
527.7430	0.1084
528.0130	0.0666
528.2820	0.0508
528.5520	0.0659
528.8210	0.0857
529.0910	0.0976
529.3600	0.0721
529.6300	0.0701
529.8990	0.0632
530.1690	0.0622
530.4380	0.1162
530.7080	0.1488
530.9770	0.1049
531.2470	0.0810
531.5160	0.1538
531.7860	0.1216
532.0550	0.0548
532.3250	0.0402
532.5940	0.0814
532.8640	0.1025
533.1330	0.0760
533.4030	0.0419
533.6720	0.0592
533.9420	0.1194
534.2120	0.0700
534.4810	0.0317
534.7510	0.0649
535.0200	0.2130
535.2900	0.1225
535.5590	0.0410
535.8290	0.0724
536.0980	0.1422
536.3680	0.1251
536.6370	0.0804
536.9070	0.1308
537.1760	0.1307
537.4460	0.1103
537.7150	0.0846
537.9850	0.0756
538.2540	0.0943
538.5240	0.1086
538.7930	0.1273
539.0630	0.0878
539.3320	0.1113
539.6020	0.1180
539.8710	0.0923
540.1410	0.1117
540.4100	0.1427
540.6800	0.0861
540.9490	0.0865
541.2190	0.1050
541.4880	0.1781
541.7580	0.1830
542.0270	0.1044
542.2970	0.0781
542.5660	0.0928
542.8360	0.0556
543.1050	0.0497
543.3750	0.0733
543.6440	0.0744
543.9140	0.0556
544.1830	0.0473
544.4530	0.0989
544.7220	0.0852
544.9920	0.0428
545.2610	0.0677
545.5310	0.0888
545.8000	0.0859
546.0700	0.0740
546.3460	0.0559
546.6220	0.0648
546.8970	0.0662
547.1730	0.0923
547.4490	0.0619
547.7250	0.1199
548.0010	0.1110
548.2760	0.0963
548.5520	0.0834
548.8280	0.0745
549.1040	0.0959
549.3800	0.0898
549.6550	0.1153
549.9310	0.1381
550.2070	0.1753
550.4830	0.0972
550.7590	0.0589
551.0340	0.0657
551.3100	0.1127
551.5860	0.0816
551.8620	0.1298
552.1380	0.1040
552.4130	0.0670
552.6890	0.0457
552.9650	0.0421
553.2410	0.0523
553.5170	0.0831
553.7930	0.0631
554.0680	0.0662
554.3440	0.0725
554.6200	0.1298
554.8960	0.0848
555.1720	0.0381
555.4470	0.0762
555.7230	0.0741
555.9990	0.0526
556.2750	0.0584
556.5510	0.1142
556.8260	0.0910
557.1020	0.0573
557.3780	0.1085
557.6540	0.1039
557.9300	0.0732
558.2050	0.0670
558.4810	0.0519
558.7570	0.0653
559.0330	0.0673
559.3090	0.1458
559.5840	0.1397
559.8600	0.1109
560.1360	0.0836
560.4120	0.0667
560.6880	0.0617
560.9630	0.0677
561.2390	0.2213
561.5150	0.1309
561.7910	0.0507
562.0670	0.0689
562.3420	0.0973
562.6180	0.0746
562.8940	0.0376
563.1700	0.1184
563.4460	0.1005
563.7210	0.0390
563.9970	0.0399
564.2730	0.0752
564.5490	0.1140
564.8250	0.0982
565.1000	0.1878
565.3760	0.1338
565.6520	0.0906
565.9280	0.1262
566.2040	0.0716
566.4790	0.0816
566.7550	0.0857
567.0310	0.0718
567.3070	0.0490
567.5830	0.1118
567.8580	0.1021
568.1340	0.0904
568.4100	0.0568
568.6860	0.0955
568.9620	0.0874
569.2370	0.1489
569.5130	0.0929
569.7890	0.0896
570.0650	0.0838
570.3410	0.0682
570.6170	0.0603
570.8920	0.0784
571.1680	0.0786
571.4440	0.0686
571.7200	0.0647
571.9960	0.1130
572.2710	0.1930
572.5470	0.1084
572.8230	0.0415
573.0990	0.0881
573.3750	0.1976
573.6500	0.1201
573.9260	0.0636
574.2020	0.0695
574.4780	0.0778
574.7540	0.0638
575.0290	0.0615
575.3050	0.1215
575.5810	0.0921
575.8570	0.0753
576.1330	0.0578
576.4080	0.0732
576.6840	0.1089
576.9600	0.0986
577.2390	0.0619
577.5170	0.0564
577.7960	0.0900
578.0750	0.1338
578.3540	0.0763
578.6320	0.0582
578.9110	0.1234
579.1900	0.2028
579.4690	0.1360
579.7470	0.0935
580.0260	0.0931
580.3050	0.0612
580.5840	0.1101
580.8620	0.0945
581.1410	0.1001
581.4200	0.0870
581.6990	0.0717
581.9770	0.1067
582.2560	0.1123
582.5350	0.1390
582.8140	0.0980
583.0920	0.1025
583.3710	0.1002
583.6500	0.0953
583.9290	0.0839
584.2070	0.0705
584.4860	0.1132
584.7650	0.1263
585.0430	0.0666
585.3220	0.1315
585.6010	0.1434
585.8800	0.1022
586.1580	0.0625
586.4370	0.0582
586.7160	0.0837
586.9950	0.1081
587.2730	0.0774
587.5520	0.0745
587.8310	0.1100
588.1100	0.1440
588.3880	0.0790
588.6670	0.0487
588.9460	0.0553
589.2250	0.0387
589.5030	0.0329
589.7820	0.0469
590.0610	0.0606
590.3400	0.1312
590.6180	0.1930
590.8970	0.2256
591.1760	0.1424
591.4550	0.0751
591.7330	0.0756
592.0120	0.1095
592.2910	0.1617
592.5700	0.1003
592.8480	0.1461
593.1270	0.1051
593.4060	0.0854
593.6840	0.0603
593.9630	0.0699
594.2420	0.0893
594.5210	0.0754
594.7990	0.0911
595.0780	0.0907
595.3570	0.0740
595.6360	0.0702
595.9140	0.0771
596.1930	0.0698
596.4720	0.0719
596.7510	0.0969
597.0290	0.1105
597.3080	0.1048
597.5870	0.0729
597.8660	0.0735
598.1440	0.0653
598.4230	0.0500
598.7020	0.0765
598.9810	0.0988
599.2590	0.1423
599.5380	0.1077
599.8170	0.0650
