199.8780	0.0117
200.1320	0.0125
200.3850	0.0006
200.6390	0.0021
200.8920	0.0071
201.1460	0.0039
201.4000	0.0026
201.6530	0.0032
201.9070	0.0068
202.1610	0.0004
202.4140	-0.0014
202.6680	0.0080
202.9220	0.0060
203.1750	0.0052
203.4290	0.0013
203.6830	0.0084
203.9360	0.0141
204.1900	0.0074
204.4430	0.0184
204.6970	0.0214
204.9510	0.0081
205.2040	0.0019
205.4580	0.0060
205.7120	0.0147
205.9650	0.0075
206.2190	0.0061
206.4730	0.0083
206.7260	0.0058
206.9800	0.0107
207.2330	0.0038
207.4870	-0.0023
207.7410	0.0039
207.9940	0.0087
208.2480	0.0088
208.5020	0.0040
208.7550	0.0054
209.0090	0.0135
209.2630	0.0169
209.5160	0.0060
209.7700	0.0015
210.0240	0.0112
210.2770	0.0086
210.5310	0.0005
210.7840	-0.0016
211.0380	0.0007
211.2920	-0.0021
211.5450	-0.0004
211.7990	0.0124
212.0530	0.0196
212.3060	0.0150
212.5600	0.0043
212.8140	0.0022
213.0670	0.0032
213.3210	0.0051
213.5750	0.0055
213.8280	0.0095
214.0820	0.0179
214.3350	0.0089
214.5890	0.0041
214.8430	0.0085
215.0960	0.0176
215.3500	0.0115
215.6040	0.0090
215.8570	0.0044
216.1110	0.0070
216.3650	0.0025
216.6180	0.0012
216.8720	0.0048
217.1260	0.0022
217.3790	0.0090
217.6330	0.0036
217.8860	0.0050
218.1400	0.0055
218.3940	0.0023
218.6470	0.0015
218.9010	0.0018
219.1550	0.0059
219.4080	0.0007
219.6620	-0.0021
219.9160	0.0049
220.1690	0.0099
220.4230	0.0091
220.6770	0.0079
220.9300	0.0021
221.1840	-0.0001
221.4370	-0.0022
221.6910	-0.0018
221.9450	0.0018
222.1980	0.0038
222.4520	0.0067
222.7060	0.0109
222.9590	0.0085
223.2130	0.0097
223.4670	0.0072
223.7200	0.0094
223.9740	0.0097
224.2280	0.0041
224.4810	0.0066
224.7350	0.0048
224.9880	0.0075
225.2420	0.0170
225.4960	0.0128
225.7490	0.0181
226.0030	0.0162
226.2570	0.0080
226.5100	0.0012
226.7640	0.0129
227.0180	0.0130
227.2710	0.0114
227.5250	0.0076
227.7790	0.0033
228.0320	0.0086
228.2860	0.0161
228.5390	0.0118
228.7930	0.0041
229.0470	0.0079
229.3000	0.0211
229.5540	0.0218
229.8080	0.0101
230.0610	0.0105
230.3150	0.0142
230.5690	0.0039
230.8220	0.0039
231.0760	0.0077
231.3300	0.0065
231.5830	0.0083
231.8370	0.0024
232.0900	0.0022
232.3440	0.0045
232.5980	0.0068
232.8510	0.0105
233.1050	0.0069
233.3590	0.0207
233.6120	0.0108
233.8660	0.0056
234.1200	0.0072
234.3730	0.0165
234.6270	0.0131
234.8800	0.0018
235.1340	0.0034
235.3880	0.0146
235.6410	0.0071
235.8950	0.0002
236.1490	0.0034
236.4020	0.0076
236.6560	0.0100
236.9100	0.0013
237.1630	0.0077
237.4170	0.0072
237.6710	-0.0009
237.9240	0.0044
238.1780	0.0085
238.4310	0.0067
238.6850	0.0032
238.9390	0.0071
239.1920	0.0042
239.4460	0.0142
239.7000	0.0106
239.9530	-0.0001
240.2070	0.0104
240.4610	0.0121
240.7140	0.0071
240.9680	0.0058
241.2220	0.0043
241.4750	0.0048
241.7290	0.0022
241.9820	0.0042
242.2360	0.0126
242.4900	0.0097
242.7430	0.0065
242.9970	0.0235
243.2510	0.0118
243.5040	0.0073
243.7580	0.0015
244.0120	0.0029
244.2650	0.0225
244.5190	0.0192
244.7730	0.0058
245.0260	0.0055
245.2800	0.0075
245.5330	0.0136
245.7870	0.0073
246.0410	0.0073
246.2940	0.0148
246.5480	0.0098
246.8020	0.0062
247.0550	0.0092
247.3090	0.0177
247.5630	0.0164
247.8160	0.0109
248.0700	0.0111
248.3240	0.0202
248.5770	0.0100
248.8310	0.0012
249.0840	0.0068
249.3380	0.0085
249.5920	0.0127
249.8450	0.0048
250.0990	0.0099
250.3530	0.0160
250.6060	0.0094
250.8600	0.0017
251.1140	-0.0016
251.3670	0.0144
251.6210	0.0133
251.8750	0.0078
252.1280	0.0112
252.3820	0.0129
252.6350	0.0114
252.8890	0.0088
253.1430	0.0034
253.3960	0.0089
253.6500	0.0145
253.9040	0.0072
254.1590	0.0013
254.4130	0.0104
254.6670	0.0186
254.9220	0.0199
255.1760	0.0198
255.4310	0.0089
255.6850	0.0098
255.9390	0.0122
256.1940	0.0033
256.4480	0.0030
256.7020	0.0061
256.9570	0.0094
257.2110	0.0110
257.4650	0.0146
257.7200	0.0313
257.9740	0.0190
258.2280	0.0126
258.4830	0.0074
258.7370	0.0057
258.9920	0.0082
259.2460	0.0082
259.5000	0.0090
259.7550	0.0146
260.0090	0.0146
260.2630	0.0078
260.5180	0.0123
260.7720	0.0112
261.0260	0.0047
261.2810	0.0029
261.5350	0.0046
261.7890	0.0067
262.0440	0.0032
262.2980	0.0151
262.5530	0.0139
262.8070	0.0065
263.0610	0.0028
263.3160	0.0088
263.5700	0.0144
263.8240	0.0069
264.0790	0.0057
264.3330	0.0026
264.5870	0.0022
264.8420	0.0195
265.0960	0.0151
265.3510	0.0186
265.6050	0.0196
265.8590	0.0131
266.1140	0.0080
266.3680	0.0100
266.6220	0.0102
266.8770	0.0115
267.1310	0.0091
267.3850	0.0133
267.6400	0.0092
267.8940	0.0080
268.1480	0.0037
268.4030	0.0069
268.6570	0.0080
268.9120	0.0048
269.1660	0.0037
269.4200	0.0081
269.6750	0.0127
269.9290	0.0121
270.1830	0.0119
270.4380	0.0116
270.6920	0.0113
270.9460	0.0105
271.2010	0.0215
271.4550	0.0093
271.7090	0.0031
271.9640	0.0085
272.2180	0.0038
272.4730	-0.0001
272.7270	0.0103
272.9810	0.0160
273.2360	0.0068
273.4900	0.0055
273.7440	0.0121
273.9990	0.0151
274.2530	0.0067
274.5070	0.0026
274.7620	0.0068
275.0160	0.0086
275.2710	0.0107
275.5250	0.0087
275.7790	0.0067
276.0340	0.0062
276.2880	0.0051
276.5420	0.0142
276.7970	0.0161
277.0510	0.0139
277.3050	0.0194
277.5600	0.0117
277.8140	0.0090
278.0680	0.0156
278.3230	0.0081
278.5770	0.0093
278.8320	0.0218
279.0860	0.0209
279.3400	0.0210
279.5950	0.0139
279.8490	0.0140
280.1030	0.0115
280.3580	0.0115
280.6120	0.0125
280.8660	0.0118
281.1210	0.0123
281.3750	0.0051
281.6290	0.0029
281.8840	0.0132
282.1380	0.0254
282.3930	0.0182
282.6470	0.0131
282.9010	0.0144
283.1560	0.0095
283.4100	0.0144
283.6640	0.0095
283.9190	0.0093
284.1730	0.0072
284.4270	0.0082
284.6820	0.0074
284.9360	0.0111
285.1910	0.0129
285.4450	0.0128
285.6990	0.0092
285.9540	0.0048
286.2080	0.0114
286.4620	0.0150
286.7170	0.0091
286.9710	0.0198
287.2250	0.0246
287.4800	0.0082
287.7340	0.0006
287.9880	0.0122
288.2430	0.0218
288.4970	0.0091
288.7520	0.0057
289.0060	0.0186
289.2600	0.0108
289.5150	0.0070
289.7690	0.0070
290.0230	0.0124
290.2780	0.0169
290.5320	0.0159
290.7860	0.0105
291.0410	0.0177
291.2950	0.0192
291.5490	0.0087
291.8040	0.0084
292.0580	0.0127
292.3130	0.0101
292.5670	0.0088
292.8210	0.0084
293.0760	0.0149
293.3300	0.0203
293.5840	0.0240
293.8390	0.0119
294.0930	0.0068
294.3470	0.0103
294.6020	0.0129
294.8560	0.0116
295.1110	0.0066
295.3650	0.0079
295.6190	0.0136
295.8740	0.0121
296.1280	0.0136
296.3820	0.0210
296.6370	0.0213
296.8910	0.0114
297.1450	0.0145
297.4000	0.0285
297.6540	0.0232
297.9080	0.0178
298.1630	0.0152
298.4170	0.0120
298.6720	0.0076
298.9260	0.0117
299.1800	0.0162
299.4350	0.0181
299.6890	0.0125
299.9430	0.0128
300.1980	0.0192
300.4520	0.0258
300.7060	0.0238
300.9610	0.0267
301.2150	0.0217
301.4690	0.0260
301.7240	0.0208
301.9780	0.0208
302.2330	0.0248
302.4870	0.0305
302.7410	0.0306
302.9960	0.0205
303.2500	0.0264
303.5040	0.0354
303.7590	0.0261
304.0130	0.0267
304.2670	0.0359
304.5220	0.0285
304.7760	0.0221
305.0310	0.0201
305.2850	0.0200
305.5390	0.0233
305.7940	0.0179
306.0480	0.0165
306.3020	0.0325
306.5570	0.0287
306.8110	0.0264
307.0650	0.0272
307.3200	0.0305
307.5740	0.0263
307.8280	0.0195
308.0830	0.0224
308.3370	0.0230
308.5920	0.0255
308.8460	0.0311
309.1000	0.0271
309.3550	0.0373
309.6090	0.0377
309.8630	0.0272
310.1180	0.0188
310.3720	0.0253
310.6260	0.0276
310.8810	0.0230
311.1350	0.0245
311.3890	0.0299
311.6440	0.0269
311.8980	0.0211
312.1530	0.0273
312.4070	0.0348
312.6610	0.0342
312.9160	0.0254
313.1700	0.0175
313.4290	0.0266
313.6880	0.0323
313.9470	0.0271
314.2060	0.0186
314.4650	0.0233
314.7240	0.0258
314.9830	0.0282
315.2420	0.0222
315.5010	0.0221
315.7600	0.0228
316.0190	0.0283
316.2780	0.0243
316.5360	0.0201
316.7950	0.0234
317.0540	0.0281
317.3130	0.0410
317.5720	0.0308
317.8310	0.0259
318.0900	0.0182
318.3490	0.0164
318.6080	0.0302
318.8670	0.0254
319.1260	0.0271
319.3850	0.0212
319.6440	0.0286
319.9030	0.0258
320.1620	0.0162
320.4210	0.0133
320.6800	0.0138
320.9390	0.0250
321.1980	0.0175
321.4570	0.0150
321.7160	0.0168
321.9750	0.0227
322.2340	0.0244
322.4930	0.0231
322.7520	0.0273
323.0100	0.0278
323.2690	0.0258
323.5280	0.0215
323.7870	0.0184
324.0460	0.0147
324.3050	0.0192
324.5640	0.0132
324.8230	0.0137
325.0820	0.0162
325.3410	0.0180
325.6000	0.0128
325.8590	0.0086
326.1180	0.0144
326.3770	0.0161
326.6360	0.0179
326.8950	0.0285
327.1540	0.0264
327.4130	0.0117
327.6720	0.0145
327.9310	0.0260
328.1900	0.0276
328.4490	0.0244
328.7080	0.0145
328.9670	0.0124
329.2260	0.0135
329.4850	0.0186
329.7430	0.0249
330.0020	0.0280
330.2610	0.0205
330.5200	0.0170
330.7790	0.0165
331.0380	0.0169
331.2970	0.0111
331.5560	0.0051
331.8150	0.0055
332.0740	0.0094
332.3330	0.0122
332.5920	0.0128
332.8510	0.0095
333.1100	0.0092
333.3690	0.0089
333.6280	0.0063
333.8870	0.0181
334.1460	0.0196
334.4050	0.0169
334.6640	0.0170
334.9230	0.0111
335.1820	0.0130
335.4410	0.0154
335.7000	0.0168
335.9590	0.0141
336.2170	0.0096
336.4760	0.0127
336.7350	0.0165
336.9940	0.0137
337.2530	0.0215
337.5120	0.0170
337.7710	0.0149
338.0300	0.0175
338.2890	0.0221
338.5480	0.0139
338.8070	0.0117
339.0660	0.0156
339.3250	0.0112
339.5840	0.0122
339.8430	0.0133
340.1020	0.0118
340.3610	0.0133
340.6200	0.0166
340.8790	0.0183
341.1380	0.0166
341.3970	0.0125
341.6560	0.0107
341.9150	0.0092
342.1740	0.0160
342.4330	0.0147
342.6910	0.0125
342.9500	0.0121
343.2090	0.0073
343.4680	0.0159
343.7270	0.0141
343.9860	0.0086
344.2450	0.0057
344.5040	0.0142
344.7630	0.0194
345.0220	0.0173
345.2810	0.0101
345.5400	0.0080
345.7990	0.0111
346.0580	0.0128
346.3170	0.0110
346.5760	0.0177
346.8350	0.0142
347.0940	0.0069
347.3530	0.0075
347.6120	0.0085
347.8710	0.0154
348.1300	0.0157
348.3890	0.0111
348.6480	0.0145
348.9070	0.0125
349.1660	0.0070
349.4240	0.0068
349.6830	0.0100
349.9420	0.0168
350.2010	0.0146
350.4600	0.0147
350.7190	0.0169
350.9780	0.0134
351.2370	0.0085
351.4960	0.0053
351.7550	0.0126
352.0140	0.0151
352.2730	0.0088
352.5320	0.0087
352.7910	0.0166
353.0500	0.0125
353.3090	0.0056
353.5680	0.0052
353.8270	0.0101
354.0860	0.0146
354.3450	0.0176
354.6040	0.0108
354.8630	0.0133
355.1220	0.0149
355.3810	0.0148
355.6400	0.0113
355.8980	0.0251
356.1570	0.0270
356.4160	0.0154
356.6750	0.0194
356.9340	0.0183
357.1930	0.0171
357.4520	0.0171
357.7110	0.0159
357.9700	0.0176
358.2290	0.0143
358.4880	0.0161
358.7470	0.0085
359.0060	0.0111
359.2650	0.0181
359.5240	0.0100
359.7830	0.0085
360.0420	0.0093
360.3010	0.0196
360.5600	0.0131
360.8190	0.0113
361.0780	0.0101
361.3370	0.0126
361.5960	0.0144
361.8550	0.0094
362.1140	0.0158
362.3720	0.0186
362.6310	0.0091
362.8900	0.0104
363.1490	0.0133
363.4080	0.0204
363.6670	0.0162
363.9260	0.0099
364.1850	0.0101
364.4440	0.0113
364.7030	0.0075
364.9620	0.0128
365.2210	0.0231
365.4800	0.0184
365.7390	0.0183
365.9990	0.0180
366.2580	0.0137
366.5180	0.0117
366.7770	0.0078
367.0370	0.0172
367.2960	0.0148
367.5560	0.0144
367.8150	0.0160
368.0750	0.0189
368.3340	0.0158
368.5940	0.0132
368.8530	0.0168
369.1130	0.0129
369.3720	0.0103
369.6320	0.0182
369.8910	0.0157
370.1500	0.0083
370.4100	0.0166
370.6690	0.0197
370.9290	0.0091
371.1880	0.0072
371.4480	0.0121
371.7070	0.0210
371.9670	0.0132
372.2260	0.0090
372.4860	0.0252
372.7450	0.0212
373.0050	0.0195
373.2640	0.0103
373.5240	0.0103
373.7830	0.0103
374.0430	0.0181
374.3020	0.0136
374.5610	0.0187
374.8210	0.0139
375.0800	0.0119
375.3400	0.0196
375.5990	0.0184
375.8590	0.0196
376.1180	0.0134
376.3780	0.0095
376.6370	0.0192
376.8970	0.0193
377.1560	0.0108
377.4160	0.0093
377.6750	0.0087
377.9350	0.0151
378.1940	0.0179
378.4540	0.0171
378.7130	0.0194
378.9720	0.0166
379.2320	0.0129
379.4910	0.0127
379.7510	0.0137
380.0100	0.0169
380.2700	0.0124
380.5290	0.0098
380.7890	0.0162
381.0480	0.0175
381.3080	0.0132
381.5670	0.0110
381.8270	0.0127
382.0860	0.0093
382.3460	0.0099
382.6050	0.0071
382.8650	0.0120
383.1240	0.0185
383.3830	0.0156
383.6430	0.0221
383.9020	0.0195
384.1620	0.0133
384.4210	0.0068
384.6810	0.0203
384.9400	0.0313
385.2000	0.0231
385.4590	0.0172
385.7190	0.0117
385.9780	0.0092
386.2380	0.0144
386.4970	0.0124
386.7570	0.0063
387.0160	0.0168
387.2760	0.0225
387.5350	0.0172
387.7940	0.0181
388.0540	0.0160
388.3130	0.0189
388.5730	0.0117
388.8320	0.0102
389.0920	0.0129
389.3510	0.0131
389.6110	0.0132
389.8700	0.0159
390.1300	0.0192
390.3890	0.0211
390.6490	0.0133
390.9080	0.0061
391.1680	0.0132
391.4270	0.0238
391.6860	0.0242
391.9460	0.0160
392.2050	0.0179
392.4650	0.0226
392.7240	0.0161
392.9840	0.0199
393.2430	0.0238
393.5030	0.0212
393.7620	0.0175
394.0220	0.0114
394.2810	0.0096
394.5410	0.0114
394.8000	0.0155
395.0600	0.0138
395.3190	0.0162
395.5790	0.0126
395.8380	0.0089
396.0970	0.0140
396.3570	0.0253
396.6160	0.0172
396.8760	0.0103
397.1350	0.0087
397.3950	0.0078
397.6540	0.0138
397.9140	0.0317
398.1730	0.0261
398.4330	0.0225
398.6920	0.0227
398.9520	0.0211
399.2110	0.0132
399.4710	0.0203
399.7300	0.0172
399.9900	0.0176
400.2490	0.0145
400.5080	0.0118
400.7680	0.0110
401.0270	0.0114
401.2870	0.0174
401.5460	0.0172
401.8060	0.0175
402.0650	0.0304
402.3250	0.0221
402.5840	0.0281
402.8440	0.0207
403.1030	0.0124
403.3630	0.0300
403.6220	0.0202
403.8820	0.0151
404.1410	0.0165
404.4010	0.0303
404.6600	0.0230
404.9260	0.0144
405.1930	0.0152
405.4590	0.0147
405.7260	0.0105
405.9920	0.0085
406.2590	0.0093
406.5250	0.0082
406.7920	0.0177
407.0580	0.0171
407.3250	0.0087
407.5910	0.0127
407.8580	0.0184
408.1240	0.0202
408.3910	0.0121
408.6570	0.0108
408.9240	0.0133
409.1900	0.0151
409.4570	0.0238
409.7230	0.0177
409.9900	0.0185
410.2560	0.0261
410.5230	0.0144
410.7890	0.0100
411.0560	0.0145
411.3220	0.0125
411.5890	0.0077
411.8550	0.0169
412.1220	0.0179
412.3880	0.0131
412.6550	0.0076
412.9210	0.0065
413.1880	0.0167
413.4540	0.0287
413.7210	0.0146
413.9870	0.0111
414.2540	0.0151
414.5200	0.0135
414.7870	0.0078
415.0530	0.0145
415.3200	0.0175
415.5860	0.0170
415.8530	0.0142
416.1190	0.0118
416.3860	0.0136
416.6520	0.0105
416.9190	0.0119
417.1850	0.0081
417.4520	0.0166
417.7180	0.0251
417.9850	0.0146
418.2510	0.0093
418.5180	0.0148
418.7840	0.0118
419.0510	0.0106
419.3170	0.0116
419.5840	0.0145
419.8500	0.0157
420.1170	0.0125
420.3830	0.0077
420.6500	0.0083
420.9160	0.0141
421.1830	0.0091
421.4490	0.0150
421.7160	0.0176
421.9820	0.0181
422.2490	0.0138
422.5150	0.0194
422.7820	0.0223
423.0480	0.0204
423.3150	0.0236
423.5810	0.0184
423.8480	0.0270
424.1140	0.0298
424.3810	0.0158
424.6470	0.0177
424.9140	0.0212
425.1800	0.0168
425.4470	0.0163
425.7130	0.0208
425.9800	0.0308
426.2460	0.0371
426.5130	0.0215
426.7790	0.0081
427.0460	0.0109
427.3120	0.0188
427.5790	0.0129
427.8450	0.0131
428.1120	0.0171
428.3780	0.0210
428.6450	0.0404
428.9110	0.0216
429.1780	0.0142
429.4440	0.0147
429.7110	0.0131
429.9770	0.0078
430.2440	0.0152
430.5100	0.0164
430.7770	0.0170
431.0430	0.0195
431.3100	0.0193
431.5760	0.0147
431.8430	0.0231
432.1090	0.0200
432.3760	0.0137
432.6420	0.0203
432.9090	0.0167
433.1750	0.0107
433.4420	0.0114
433.7080	0.0274
433.9750	0.0348
434.2410	0.0251
434.5080	0.0225
434.7740	0.0184
435.0410	0.0192
435.3070	0.0127
435.5740	0.0159
435.8400	0.0207
436.1100	0.0284
436.3790	0.0237
436.6490	0.0215
436.9180	0.0230
437.1880	0.0267
437.4570	0.0212
437.7270	0.0139
437.9960	0.0170
438.2660	0.0125
438.5350	0.0151
438.8050	0.0212
439.0740	0.0208
439.3440	0.0187
439.6130	0.0202
439.8830	0.0139
440.1520	0.0161
440.4220	0.0193
440.6910	0.0192
440.9610	0.0169
441.2300	0.0155
441.5000	0.0171
441.7690	0.0136
442.0390	0.0108
442.3080	0.0134
442.5780	0.0210
442.8470	0.0183
443.1170	0.0246
443.3860	0.0178
443.6560	0.0133
443.9250	0.0108
444.1950	0.0245
444.4640	0.0247
444.7340	0.0146
445.0030	0.0103
445.2730	0.0162
445.5420	0.0235
445.8120	0.0192
446.0810	0.0254
446.3510	0.0305
446.6200	0.0230
446.8900	0.0169
447.1590	0.0126
447.4290	0.0182
447.6980	0.0289
447.9680	0.0185
448.2380	0.0184
448.5070	0.0207
448.7770	0.0178
449.0460	0.0142
449.3160	0.0197
449.5850	0.0252
449.8550	0.0231
450.1240	0.0204
450.3940	0.0177
450.6630	0.0177
450.9330	0.0182
451.2020	0.0131
451.4720	0.0160
451.7410	0.0235
452.0110	0.0182
452.2800	0.0099
452.5500	0.0120
452.8190	0.0130
453.0890	0.0204
453.3580	0.0175
453.6280	0.0138
453.8970	0.0159
454.1670	0.0199
454.4360	0.0173
454.7060	0.0137
454.9750	0.0132
455.2450	0.0162
455.5140	0.0185
455.7840	0.0107
456.0530	0.0151
456.3230	0.0143
456.5920	0.0109
456.8620	0.0222
457.1310	0.0240
457.4010	0.0192
457.6700	0.0109
457.9400	0.0164
458.2090	0.0145
458.4790	0.0137
458.7480	0.0135
459.0180	0.0078
459.2870	0.0133
459.5570	0.0164
459.8260	0.0324
460.0960	0.0427
460.3660	0.0335
460.6350	0.0218
460.9050	0.0224
461.1740	0.0130
461.4440	0.0130
461.7130	0.0155
461.9830	0.0103
462.2520	0.0066
462.5220	0.0143
462.7910	0.0147
463.0610	0.0098
463.3300	0.0215
463.6000	0.0227
463.8690	0.0182
464.1390	0.0100
464.4080	0.0069
464.6780	0.0112
464.9470	0.0148
465.2170	0.0163
465.4860	0.0160
465.7560	0.0147
466.0250	0.0195
466.2950	0.0143
466.5640	0.0166
466.8340	0.0211
467.1030	0.0299
467.3730	0.0279
467.6420	0.0180
467.9120	0.0128
468.1810	0.0144
468.4510	0.0101
468.7200	0.0109
468.9900	0.0145
469.2590	0.0255
469.5290	0.0255
469.7980	0.0131
470.0680	0.0119
470.3370	0.0151
470.6070	0.0104
470.8760	0.0115
471.1460	0.0206
471.4150	0.0231
471.6850	0.0159
471.9540	0.0161
472.2240	0.0159
472.4930	0.0146
472.7630	0.0151
473.0330	0.0223
473.3020	0.0327
473.5720	0.0196
473.8410	0.0080
474.1110	0.0117
474.3800	0.0126
474.6500	0.0135
474.9190	0.0159
475.1890	0.0104
475.4580	0.0181
475.7280	0.0190
475.9970	0.0262
476.2670	0.0196
476.5360	0.0152
476.8060	0.0184
477.0750	0.0117
477.3450	0.0171
477.6140	0.0164
477.8840	0.0265
478.1530	0.0186
478.4230	0.0106
478.6920	0.0213
478.9620	0.0183
479.2310	0.0180
479.5010	0.0150
479.7700	0.0185
480.0400	0.0245
480.3090	0.0137
480.5790	0.0076
480.8480	0.0098
481.1180	0.0232
481.3870	0.0176
481.6570	0.0174
481.9260	0.0153
482.1960	0.0133
482.4650	0.0103
482.7350	0.0132
483.0040	0.0174
483.2740	0.0154
483.5430	0.0145
483.8130	0.0087
484.0820	0.0109
484.3520	0.0158
484.6210	0.0108
484.8910	0.0094
485.1610	0.0125
485.4300	0.0253
485.7000	0.0154
485.9690	0.0109
486.2390	0.0135
486.5080	0.0200
486.7780	0.0169
487.0470	0.0118
487.3170	0.0108
487.5860	0.0138
487.8560	0.0113
488.1250	0.0131
488.3950	0.0126
488.6640	0.0126
488.9340	0.0165
489.2030	0.0115
489.4730	0.0099
489.7420	0.0127
490.0120	0.0091
490.2810	0.0075
490.5510	0.0125
490.8200	0.0177
491.0900	0.0281
491.3590	0.0207
491.6290	0.0133
491.8980	0.0221
492.1680	0.0194
492.4370	0.0089
492.7070	0.0094
492.9760	0.0239
493.2460	0.0148
493.5150	0.0116
493.7850	0.0191
494.0540	0.0234
494.3240	0.0189
494.5930	0.0094
494.8630	0.0086
495.1320	0.0146
495.4020	0.0247
495.6710	0.0162
495.9410	0.0115
496.2100	0.0186
496.4800	0.0162
496.7490	0.0192
497.0190	0.0171
497.2890	0.0205
497.5580	0.0144
497.8280	0.0152
498.0970	0.0161
498.3670	0.0205
498.6360	0.0189
498.9060	0.0150
499.1750	0.0123
499.4450	0.0134
499.7140	0.0100
499.9840	0.0086
500.2530	0.0100
500.5230	0.0143
500.7920	0.0134
501.0620	0.0118
501.3310	0.0209
501.6010	0.0219
501.8700	0.0180
502.1400	0.0147
502.4090	0.0121
502.6790	0.0123
502.9480	0.0140
503.2180	0.0147
503.4870	0.0308
503.7570	0.0201
504.0260	0.0133
504.2960	0.0138
504.5650	0.0195
504.8350	0.0167
505.1040	0.0136
505.3740	0.0206
505.6430	0.0155
505.9130	0.0288
506.1820	0.0264
506.4520	0.0162
506.7210	0.0319
506.9910	0.0290
507.2600	0.0135
507.5300	0.0142
507.7990	0.0134
508.0690	0.0116
508.3380	0.0187
508.6080	0.0158
508.8770	0.0165
509.1470	0.0205
509.4160	0.0174
509.6860	0.0111
509.9560	0.0211
510.2250	0.0246
510.4950	0.0143
510.7640	0.0111
511.0340	0.0163
511.3030	0.0186
511.5730	0.0136
511.8420	0.0086
512.1120	0.0161
512.3810	0.0186
512.6510	0.0124
512.9200	0.0095
513.1900	0.0163
513.4590	0.0132
513.7290	0.0122
513.9980	0.0180
514.2680	0.0207
514.5370	0.0463
514.8070	0.0351
515.0760	0.0190
515.3460	0.0160
515.6150	0.0117
515.8850	0.0194
516.1540	0.0226
516.4240	0.0179
516.6930	0.0169
516.9630	0.0128
517.2320	0.0143
517.5020	0.0139
517.7710	0.0107
518.0410	0.0142
518.3100	0.0169
518.5800	0.0166
518.8490	0.0278
519.1190	0.0200
519.3880	0.0142
519.6580	0.0206
519.9270	0.0155
520.1970	0.0091
520.4660	0.0091
520.7360	0.0118
521.0050	0.0167
521.2750	0.0133
521.5440	0.0178
521.8140	0.0135
522.0840	0.0163
522.3530	0.0181
522.6230	0.0099
522.8920	0.0145
523.1620	0.0185
523.4310	0.0199
523.7010	0.0163
523.9700	0.0139
524.2400	0.0107
524.5090	0.0123
524.7790	0.0089
525.0480	0.0070
525.3180	0.0161
525.5870	0.0113
525.8570	0.0081
526.1260	0.0194
526.3960	0.0184
526.6650	0.0120
526.9350	0.0108
527.2040	0.0112
527.4740	0.0140
527.7430	0.0177
528.0130	0.0124
528.2820	0.0102
528.5520	0.0124
528.8210	0.0151
529.0910	0.0161
529.3600	0.0122
529.6300	0.0128
529.8990	0.0123
530.1690	0.0122
530.4380	0.0189
530.7080	0.0226
530.9770	0.0175
531.2470	0.0144
531.5160	0.0232
531.7860	0.0197
532.0550	0.0109
532.3250	0.0087
532.5940	0.0150
532.8640	0.0177
533.1330	0.0139
533.4030	0.0088
533.6720	0.0113
533.9420	0.0194
534.2120	0.0122
534.4810	0.0072
534.7510	0.0123
535.0200	0.0319
535.2900	0.0192
535.5590	0.0092
535.8290	0.0138
536.0980	0.0226
536.3680	0.0203
536.6370	0.0145
536.9070	0.0206
537.1760	0.0208
537.4460	0.0184
537.7150	0.0152
537.9850	0.0141
538.2540	0.0160
538.5240	0.0173
538.7930	0.0197
539.0630	0.0147
539.3320	0.0184
539.6020	0.0188
539.8710	0.0154
540.1410	0.0184
540.4100	0.0222
540.6800	0.0150
540.9490	0.0149
541.2190	0.0175
541.4880	0.0266
541.7580	0.0265
542.0270	0.0169
542.2970	0.0142
542.5660	0.0162
542.8360	0.0106
543.1050	0.0097
543.3750	0.0132
543.6440	0.0138
543.9140	0.0112
544.1830	0.0100
544.4530	0.0168
544.7220	0.0146
544.9920	0.0084
545.2610	0.0122
545.5310	0.0159
545.8000	0.0155
546.0700	0.0133
546.3460	0.0109
546.6220	0.0122
546.8970	0.0123
547.1730	0.0155
547.4490	0.0113
547.7250	0.0186
548.0010	0.0179
548.2760	0.0166
548.5520	0.0147
548.8280	0.0140
549.1040	0.0164
549.3800	0.0150
549.6550	0.0183
549.9310	0.0211
550.2070	0.0257
550.4830	0.0158
550.7590	0.0110
551.0340	0.0116
551.3100	0.0182
551.5860	0.0144
551.8620	0.0202
552.1380	0.0166
552.4130	0.0125
552.6890	0.0087
552.9650	0.0086
553.2410	0.0101
553.5170	0.0144
553.7930	0.0119
554.0680	0.0126
554.3440	0.0129
554.6200	0.0200
554.8960	0.0139
555.1720	0.0086
555.4470	0.0141
555.7230	0.0135
555.9990	0.0106
556.2750	0.0113
556.5510	0.0183
556.8260	0.0153
557.1020	0.0112
557.3780	0.0171
557.6540	0.0172
557.9300	0.0132
558.2050	0.0124
558.4810	0.0101
558.7570	0.0122
559.0330	0.0120
559.3090	0.0218
559.5840	0.0211
559.8600	0.0182
560.1360	0.0149
560.4120	0.0126
560.6880	0.0118
560.9630	0.0127
561.2390	0.0327
561.5150	0.0196
561.7910	0.0097
562.0670	0.0130
562.3420	0.0170
562.6180	0.0134
562.8940	0.0070
563.1700	0.0181
563.4460	0.0163
563.7210	0.0077
563.9970	0.0086
564.2730	0.0136
564.5490	0.0185
564.8250	0.0166
565.1000	0.0277
565.3760	0.0212
565.6520	0.0155
565.9280	0.0193
566.2040	0.0121
566.4790	0.0142
566.7550	0.0149
567.0310	0.0129
567.3070	0.0096
567.5830	0.0177
567.8580	0.0164
568.1340	0.0148
568.4100	0.0101
568.6860	0.0156
568.9620	0.0146
569.2370	0.0222
569.5130	0.0141
569.7890	0.0150
570.0650	0.0140
570.3410	0.0122
570.6170	0.0115
570.8920	0.0140
571.1680	0.0144
571.4440	0.0130
571.7200	0.0122
571.9960	0.0185
572.2710	0.0286
572.5470	0.0173
572.8230	0.0087
573.0990	0.0151
573.3750	0.0292
573.6500	0.0193
573.9260	0.0118
574.2020	0.0125
574.4780	0.0140
574.7540	0.0125
575.0290	0.0117
575.3050	0.0197
575.5810	0.0155
575.8570	0.0136
576.1330	0.0109
576.4080	0.0133
576.6840	0.0178
576.9600	0.0161
577.2390	0.0117
577.5170	0.0107
577.7960	0.0150
578.0750	0.0205
578.3540	0.0127
578.6320	0.0105
578.9110	0.0195
579.1900	0.0300
579.4690	0.0211
579.7470	0.0161
580.0260	0.0162
580.3050	0.0117
580.5840	0.0170
580.8620	0.0145
581.1410	0.0163
581.4200	0.0152
581.6990	0.0132
581.9770	0.0174
582.2560	0.0184
582.5350	0.0219
582.8140	0.0164
583.0920	0.0169
583.3710	0.0168
583.6500	0.0164
583.9290	0.0147
584.2070	0.0129
584.4860	0.0181
584.7650	0.0196
585.0430	0.0113
585.3220	0.0203
585.6010	0.0217
585.8800	0.0169
586.1580	0.0116
586.4370	0.0108
586.7160	0.0144
586.9950	0.0172
587.2730	0.0134
587.5520	0.0137
587.8310	0.0179
588.1100	0.0216
588.3880	0.0129
588.6670	0.0093
588.9460	0.0099
589.2250	0.0070
589.5030	0.0066
589.7820	0.0089
590.0610	0.0110
590.3400	0.0198
590.6180	0.0277
590.8970	0.0324
591.1760	0.0224
591.4550	0.0137
591.7330	0.0136
592.0120	0.0181
592.2910	0.0244
592.5700	0.0166
592.8480	0.0216
593.1270	0.0160
593.4060	0.0145
593.6840	0.0105
593.9630	0.0119
594.2420	0.0155
594.5210	0.0137
594.7990	0.0153
595.0780	0.0145
595.3570	0.0130
595.6360	0.0130
595.9140	0.0140
596.1930	0.0126
596.4720	0.0130
596.7510	0.0155
597.0290	0.0175
597.3080	0.0169
597.5870	0.0122
597.8660	0.0132
598.1440	0.0122
598.4230	0.0099
598.7020	0.0139
598.9810	0.0165
599.2590	0.0212
599.5380	0.0172
599.8170	0.0119
