199.8780	0.0237
200.1320	0.0230
200.3850	0.0008
200.6390	0.0062
200.8920	0.0180
201.1460	0.0114
201.4000	0.0058
201.6530	0.0088
201.9070	0.0174
202.1610	0.0033
202.4140	-0.0026
202.6680	0.0178
202.9220	0.0166
203.1750	0.0109
203.4290	0.0023
203.6830	0.0192
203.9360	0.0330
204.1900	0.0160
204.4430	0.0324
204.6970	0.0438
204.9510	0.0213
205.2040	0.0070
205.4580	0.0108
205.7120	0.0245
205.9650	0.0180
206.2190	0.0148
206.4730	0.0125
206.7260	0.0122
206.9800	0.0260
207.2330	0.0100
207.4870	-0.0042
207.7410	0.0102
207.9940	0.0213
208.2480	0.0186
208.5020	0.0078
208.7550	0.0141
209.0090	0.0311
209.2630	0.0326
209.5160	0.0103
209.7700	0.0078
210.0240	0.0180
210.2770	0.0127
210.5310	0.0016
210.7840	0.0014
211.0380	0.0064
211.2920	-0.0018
211.5450	-0.0009
211.7990	0.0279
212.0530	0.0418
212.3060	0.0299
212.5600	0.0083
212.8140	0.0078
213.0670	0.0103
213.3210	0.0115
213.5750	0.0107
213.8280	0.0205
214.0820	0.0389
214.3350	0.0203
214.5890	0.0088
214.8430	0.0141
215.0960	0.0349
215.3500	0.0229
215.6040	0.0159
215.8570	0.0124
216.1110	0.0187
216.3650	0.0067
216.6180	0.0019
216.8720	0.0132
217.1260	0.0118
217.3790	0.0162
217.6330	0.0044
217.8860	0.0121
218.1400	0.0161
218.3940	0.0068
218.6470	0.0025
218.9010	0.0070
219.1550	0.0196
219.4080	0.0063
219.6620	-0.0021
219.9160	0.0132
220.1690	0.0247
220.4230	0.0175
220.6770	0.0136
220.9300	0.0081
221.1840	0.0078
221.4370	-0.0004
221.6910	-0.0037
221.9450	0.0075
222.1980	0.0144
222.4520	0.0149
222.7060	0.0189
222.9590	0.0219
223.2130	0.0262
223.4670	0.0164
223.7200	0.0161
223.9740	0.0211
224.2280	0.0136
224.4810	0.0149
224.7350	0.0095
224.9880	0.0171
225.2420	0.0310
225.4960	0.0217
225.7490	0.0327
226.0030	0.0336
226.2570	0.0213
226.5100	0.0051
226.7640	0.0233
227.0180	0.0279
227.2710	0.0271
227.5250	0.0163
227.7790	0.0070
228.0320	0.0192
228.2860	0.0360
228.5390	0.0250
228.7930	0.0088
229.0470	0.0186
229.3000	0.0462
229.5540	0.0430
229.8080	0.0186
230.0610	0.0248
230.3150	0.0341
230.5690	0.0117
230.8220	0.0086
231.0760	0.0200
231.3300	0.0191
231.5830	0.0172
231.8370	0.0064
232.0900	0.0100
232.3440	0.0174
232.5980	0.0161
232.8510	0.0177
233.1050	0.0183
233.3590	0.0452
233.6120	0.0224
233.8660	0.0090
234.1200	0.0174
234.3730	0.0384
234.6270	0.0274
234.8800	0.0053
235.1340	0.0122
235.3880	0.0453
235.6410	0.0232
235.8950	0.0007
236.1490	0.0091
236.4020	0.0202
236.6560	0.0202
236.9100	0.0030
237.1630	0.0191
237.4170	0.0214
237.6710	0.0034
237.9240	0.0089
238.1780	0.0204
238.4310	0.0191
238.6850	0.0092
238.9390	0.0164
239.1920	0.0161
239.4460	0.0350
239.7000	0.0212
239.9530	0.0005
240.2070	0.0205
240.4610	0.0268
240.7140	0.0154
240.9680	0.0097
241.2220	0.0131
241.4750	0.0157
241.7290	0.0068
241.9820	0.0085
242.2360	0.0274
242.4900	0.0265
242.7430	0.0158
242.9970	0.0440
243.2510	0.0284
243.5040	0.0218
243.7580	0.0068
244.0120	0.0077
244.2650	0.0482
244.5190	0.0435
244.7730	0.0134
245.0260	0.0093
245.2800	0.0182
245.5330	0.0319
245.7870	0.0174
246.0410	0.0135
246.2940	0.0313
246.5480	0.0260
246.8020	0.0159
247.0550	0.0183
247.3090	0.0365
247.5630	0.0310
247.8160	0.0198
248.0700	0.0206
248.3240	0.0419
248.5770	0.0277
248.8310	0.0070
249.0840	0.0129
249.3380	0.0195
249.5920	0.0270
249.8450	0.0127
250.0990	0.0217
250.3530	0.0358
250.6060	0.0257
250.8600	0.0077
251.1140	-0.0001
251.3670	0.0321
251.6210	0.0319
251.8750	0.0182
252.1280	0.0204
252.3820	0.0285
252.6350	0.0298
252.8890	0.0186
253.1430	0.0056
253.3960	0.0204
253.6500	0.0338
253.9040	0.0163
254.1590	0.0034
254.4130	0.0247
254.6670	0.0413
254.9220	0.0398
255.1760	0.0376
255.4310	0.0238
255.6850	0.0262
255.9390	0.0260
256.1940	0.0083
256.4480	0.0134
256.7020	0.0211
256.9570	0.0207
257.2110	0.0200
257.4650	0.0306
257.7200	0.0669
257.9740	0.0413
258.2280	0.0255
258.4830	0.0193
258.7370	0.0193
258.9920	0.0188
259.2460	0.0146
259.5000	0.0203
259.7550	0.0335
260.0090	0.0294
260.2630	0.0169
260.5180	0.0256
260.7720	0.0263
261.0260	0.0139
261.2810	0.0075
261.5350	0.0148
261.7890	0.0213
262.0440	0.0112
262.2980	0.0299
262.5530	0.0317
262.8070	0.0209
263.0610	0.0091
263.3160	0.0174
263.5700	0.0329
263.8240	0.0227
264.0790	0.0135
264.3330	0.0061
264.5870	0.0122
264.8420	0.0452
265.0960	0.0320
265.3510	0.0345
265.6050	0.0386
265.8590	0.0285
266.1140	0.0182
266.3680	0.0187
266.6220	0.0230
266.8770	0.0291
267.1310	0.0213
267.3850	0.0261
267.6400	0.0231
267.8940	0.0245
268.1480	0.0126
268.4030	0.0147
268.6570	0.0216
268.9120	0.0202
269.1660	0.0106
269.4200	0.0166
269.6750	0.0285
269.9290	0.0277
270.1830	0.0253
270.4380	0.0243
270.6920	0.0289
270.9460	0.0287
271.2010	0.0433
271.4550	0.0216
271.7090	0.0144
271.9640	0.0259
272.2180	0.0123
272.4730	0.0029
272.7270	0.0251
272.9810	0.0364
273.2360	0.0168
273.4900	0.0116
273.7440	0.0250
273.9990	0.0341
274.2530	0.0158
274.5070	0.0062
274.7620	0.0198
275.0160	0.0258
275.2710	0.0270
275.5250	0.0197
275.7790	0.0188
276.0340	0.0216
276.2880	0.0147
276.5420	0.0208
276.7970	0.0321
277.0510	0.0341
277.3050	0.0418
277.5600	0.0247
277.8140	0.0236
278.0680	0.0372
278.3230	0.0210
278.5770	0.0198
278.8320	0.0398
279.0860	0.0426
279.3400	0.0421
279.5950	0.0276
279.8490	0.0317
280.1030	0.0305
280.3580	0.0262
280.6120	0.0243
280.8660	0.0269
281.1210	0.0317
281.3750	0.0156
281.6290	0.0088
281.8840	0.0309
282.1380	0.0442
282.3930	0.0308
282.6470	0.0245
282.9010	0.0314
283.1560	0.0261
283.4100	0.0318
283.6640	0.0220
283.9190	0.0249
284.1730	0.0242
284.4270	0.0204
284.6820	0.0166
284.9360	0.0267
285.1910	0.0327
285.4450	0.0284
285.6990	0.0190
285.9540	0.0162
286.2080	0.0300
286.4620	0.0322
286.7170	0.0190
286.9710	0.0424
287.2250	0.0547
287.4800	0.0225
287.7340	0.0058
287.9880	0.0302
288.2430	0.0489
288.4970	0.0231
288.7520	0.0199
289.0060	0.0429
289.2600	0.0293
289.5150	0.0186
289.7690	0.0165
290.0230	0.0302
290.2780	0.0360
290.5320	0.0313
290.7860	0.0220
291.0410	0.0390
291.2950	0.0438
291.5490	0.0218
291.8040	0.0196
292.0580	0.0314
292.3130	0.0296
292.5670	0.0228
292.8210	0.0185
293.0760	0.0344
293.3300	0.0468
293.5840	0.0492
293.8390	0.0256
294.0930	0.0195
294.3470	0.0287
294.6020	0.0295
294.8560	0.0244
295.1110	0.0198
295.3650	0.0249
295.6190	0.0306
295.8740	0.0262
296.1280	0.0317
296.3820	0.0474
296.6370	0.0441
296.8910	0.0235
297.1450	0.0351
297.4000	0.0642
297.6540	0.0483
297.9080	0.0275
298.1630	0.0311
298.4170	0.0334
298.6720	0.0215
298.9260	0.0263
299.1800	0.0379
299.4350	0.0435
299.6890	0.0283
299.9430	0.0209
300.1980	0.0403
300.4520	0.0583
300.7060	0.0503
300.9610	0.0514
301.2150	0.0478
301.4690	0.0595
301.7240	0.0463
301.9780	0.0430
302.2330	0.0571
302.4870	0.0694
302.7410	0.0628
302.9960	0.0427
303.2500	0.0572
303.5040	0.0769
303.7590	0.0560
304.0130	0.0548
304.2670	0.0767
304.5220	0.0654
304.7760	0.0496
305.0310	0.0429
305.2850	0.0469
305.5390	0.0563
305.7940	0.0443
306.0480	0.0406
306.3020	0.0741
306.5570	0.0678
306.8110	0.0611
307.0650	0.0605
307.3200	0.0713
307.5740	0.0645
307.8280	0.0488
308.0830	0.0519
308.3370	0.0556
308.5920	0.0645
308.8460	0.0727
309.1000	0.0603
309.3550	0.0837
309.6090	0.0882
309.8630	0.0642
310.1180	0.0448
310.3720	0.0623
310.6260	0.0698
310.8810	0.0575
311.1350	0.0584
311.3890	0.0691
311.6440	0.0671
311.8980	0.0526
312.1530	0.0636
312.4070	0.0820
312.6610	0.0840
312.9160	0.0615
313.1700	0.0436
313.4290	0.0655
313.6880	0.0786
313.9470	0.0643
314.2060	0.0475
314.4650	0.0613
314.7240	0.0676
314.9830	0.0679
315.2420	0.0549
315.5010	0.0582
315.7600	0.0617
316.0190	0.0664
316.2780	0.0559
316.5360	0.0526
316.7950	0.0621
317.0540	0.0642
317.3130	0.0893
317.5720	0.0760
317.8310	0.0667
318.0900	0.0477
318.3490	0.0438
318.6080	0.0737
318.8670	0.0671
319.1260	0.0663
319.3850	0.0531
319.6440	0.0692
319.9030	0.0652
320.1620	0.0439
320.4210	0.0361
320.6800	0.0413
320.9390	0.0643
321.1980	0.0467
321.4570	0.0404
321.7160	0.0471
321.9750	0.0610
322.2340	0.0613
322.4930	0.0545
322.7520	0.0647
323.0100	0.0689
323.2690	0.0622
323.5280	0.0512
323.7870	0.0492
324.0460	0.0436
324.3050	0.0446
324.5640	0.0333
324.8230	0.0436
325.0820	0.0487
325.3410	0.0447
325.6000	0.0338
325.8590	0.0304
326.1180	0.0404
326.3770	0.0413
326.6360	0.0422
326.8950	0.0667
327.1540	0.0657
327.4130	0.0341
327.6720	0.0297
327.9310	0.0579
328.1900	0.0671
328.4490	0.0567
328.7080	0.0368
328.9670	0.0368
329.2260	0.0417
329.4850	0.0479
329.7430	0.0566
330.0020	0.0672
330.2610	0.0558
330.5200	0.0439
330.7790	0.0400
331.0380	0.0447
331.2970	0.0362
331.5560	0.0208
331.8150	0.0189
332.0740	0.0309
332.3330	0.0397
332.5920	0.0353
332.8510	0.0273
333.1100	0.0329
333.3690	0.0336
333.6280	0.0234
333.8870	0.0421
334.1460	0.0498
334.4050	0.0463
334.6640	0.0406
334.9230	0.0284
335.1820	0.0367
335.4410	0.0433
335.7000	0.0420
335.9590	0.0355
336.2170	0.0311
336.4760	0.0395
336.7350	0.0428
336.9940	0.0359
337.2530	0.0505
337.5120	0.0461
337.7710	0.0407
338.0300	0.0427
338.2890	0.0544
338.5480	0.0419
338.8070	0.0343
339.0660	0.0400
339.3250	0.0346
339.5840	0.0385
339.8430	0.0381
340.1020	0.0332
340.3610	0.0387
340.6200	0.0468
340.8790	0.0456
341.1380	0.0411
341.3970	0.0383
341.6560	0.0362
341.9150	0.0304
342.1740	0.0414
342.4330	0.0414
342.6910	0.0409
342.9500	0.0378
343.2090	0.0248
343.4680	0.0440
343.7270	0.0429
343.9860	0.0299
344.2450	0.0226
344.5040	0.0438
344.7630	0.0538
345.0220	0.0324
345.2810	0.0241
345.5400	0.0319
345.7990	0.0398
346.0580	0.0386
346.3170	0.0333
346.5760	0.0489
346.8350	0.0448
347.0940	0.0278
347.3530	0.0252
347.6120	0.0313
347.8710	0.0460
348.1300	0.0439
348.3890	0.0337
348.6480	0.0426
348.9070	0.0411
349.1660	0.0273
349.4240	0.0237
349.6830	0.0339
349.9420	0.0500
350.2010	0.0426
350.4600	0.0397
350.7190	0.0478
350.9780	0.0441
351.2370	0.0307
351.4960	0.0215
351.7550	0.0438
352.0140	0.0486
352.2730	0.0297
352.5320	0.0277
352.7910	0.0464
353.0500	0.0408
353.3090	0.0254
353.5680	0.0225
353.8270	0.0349
354.0860	0.0461
354.3450	0.0464
354.6040	0.0323
354.8630	0.0415
355.1220	0.0473
355.3810	0.0430
355.6400	0.0336
355.8980	0.0628
356.1570	0.0680
356.4160	0.0436
356.6750	0.0491
356.9340	0.0508
357.1930	0.0518
357.4520	0.0474
357.7110	0.0423
357.9700	0.0502
358.2290	0.0464
358.4880	0.0457
358.7470	0.0288
359.0060	0.0373
359.2650	0.0522
359.5240	0.0339
359.7830	0.0296
360.0420	0.0332
360.3010	0.0547
360.5600	0.0394
360.8190	0.0326
361.0780	0.0351
361.3370	0.0420
361.5960	0.0428
361.8550	0.0323
362.1140	0.0438
362.3720	0.0508
362.6310	0.0309
362.8900	0.0316
363.1490	0.0410
363.4080	0.0511
363.6670	0.0422
363.9260	0.0313
364.1850	0.0364
364.4440	0.0410
364.7030	0.0299
364.9620	0.0381
365.2210	0.0613
365.4800	0.0539
365.7390	0.0486
365.9990	0.0466
366.2580	0.0424
366.5180	0.0402
366.7770	0.0301
367.0370	0.0483
367.2960	0.0464
367.5560	0.0472
367.8150	0.0463
368.0750	0.0450
368.3340	0.0451
368.5940	0.0437
368.8530	0.0463
369.1130	0.0370
369.3720	0.0356
369.6320	0.0526
369.8910	0.0440
370.1500	0.0289
370.4100	0.0462
370.6690	0.0555
370.9290	0.0331
371.1880	0.0289
371.4480	0.0421
371.7070	0.0614
371.9670	0.0416
372.2260	0.0318
372.4860	0.0669
372.7450	0.0619
373.0050	0.0532
373.2640	0.0329
373.5240	0.0373
373.7830	0.0388
374.0430	0.0527
374.3020	0.0430
374.5610	0.0536
374.8210	0.0472
375.0800	0.0408
375.3400	0.0471
375.5990	0.0510
375.8590	0.0582
376.1180	0.0426
376.3780	0.0335
376.6370	0.0565
376.8970	0.0596
377.1560	0.0399
377.4160	0.0340
377.6750	0.0359
377.9350	0.0491
378.1940	0.0511
378.4540	0.0487
378.7130	0.0546
378.9720	0.0518
379.2320	0.0437
379.4910	0.0398
379.7510	0.0445
380.0100	0.0533
380.2700	0.0405
380.5290	0.0338
380.7890	0.0497
381.0480	0.0540
381.3080	0.0430
381.5670	0.0376
381.8270	0.0433
382.0860	0.0370
382.3460	0.0357
382.6050	0.0295
382.8650	0.0414
383.1240	0.0571
383.3830	0.0487
383.6430	0.0576
383.9020	0.0571
384.1620	0.0485
384.4210	0.0314
384.6810	0.0547
384.9400	0.0800
385.2000	0.0661
385.4590	0.0519
385.7190	0.0390
385.9780	0.0374
386.2380	0.0510
386.4970	0.0439
386.7570	0.0285
387.0160	0.0509
387.2760	0.0634
387.5350	0.0514
387.7940	0.0521
388.0540	0.0518
388.3130	0.0583
388.5730	0.0415
388.8320	0.0366
389.0920	0.0441
389.3510	0.0465
389.6110	0.0442
389.8700	0.0480
390.1300	0.0577
390.3890	0.0611
390.6490	0.0435
390.9080	0.0279
391.1680	0.0481
391.4270	0.0701
391.6860	0.0667
391.9460	0.0467
392.2050	0.0535
392.4650	0.0651
392.7240	0.0496
392.9840	0.0544
393.2430	0.0661
393.5030	0.0623
393.7620	0.0521
394.0220	0.0389
394.2810	0.0379
394.5410	0.0429
394.8000	0.0471
395.0600	0.0424
395.3190	0.0520
395.5790	0.0463
395.8380	0.0354
396.0970	0.0436
396.3570	0.0684
396.6160	0.0545
396.8760	0.0398
397.1350	0.0343
397.3950	0.0344
397.6540	0.0459
397.9140	0.0766
398.1730	0.0668
398.4330	0.0645
398.6920	0.0662
398.9520	0.0595
399.2110	0.0415
399.4710	0.0584
399.7300	0.0551
399.9900	0.0526
400.2490	0.0432
400.5080	0.0413
400.7680	0.0431
401.0270	0.0412
401.2870	0.0493
401.5460	0.0523
401.8060	0.0554
402.0650	0.0650
402.3250	0.0495
402.5840	0.0704
402.8440	0.0615
403.1030	0.0430
403.3630	0.0756
403.6220	0.0595
403.8820	0.0505
404.1410	0.0501
404.4010	0.0730
404.6600	0.0630
404.9260	0.0485
405.1930	0.0468
405.4590	0.0439
405.7260	0.0401
405.9920	0.0386
406.2590	0.0368
406.5250	0.0335
406.7920	0.0541
407.0580	0.0554
407.3250	0.0360
407.5910	0.0420
407.8580	0.0547
408.1240	0.0590
408.3910	0.0412
408.6570	0.0337
408.9240	0.0440
409.1900	0.0522
409.4570	0.0649
409.7230	0.0494
409.9900	0.0549
410.2560	0.0705
410.5230	0.0445
410.7890	0.0346
411.0560	0.0472
411.3220	0.0439
411.5890	0.0318
411.8550	0.0438
412.1220	0.0528
412.3880	0.0476
412.6550	0.0322
412.9210	0.0280
413.1880	0.0515
413.4540	0.0760
413.7210	0.0450
413.9870	0.0373
414.2540	0.0459
414.5200	0.0470
414.7870	0.0343
415.0530	0.0435
415.3200	0.0541
415.5860	0.0566
415.8530	0.0458
416.1190	0.0392
416.3860	0.0467
416.6520	0.0419
416.9190	0.0405
417.1850	0.0311
417.4520	0.0520
417.7180	0.0686
417.9850	0.0500
418.2510	0.0367
418.5180	0.0481
418.7840	0.0428
419.0510	0.0369
419.3170	0.0371
419.5840	0.0460
419.8500	0.0526
420.1170	0.0422
420.3830	0.0299
420.6500	0.0352
420.9160	0.0478
421.1830	0.0341
421.4490	0.0378
421.7160	0.0503
421.9820	0.0571
422.2490	0.0438
422.5150	0.0516
422.7820	0.0603
423.0480	0.0583
423.3150	0.0624
423.5810	0.0506
423.8480	0.0689
424.1140	0.0766
424.3810	0.0470
424.6470	0.0483
424.9140	0.0592
425.1800	0.0529
425.4470	0.0472
425.7130	0.0526
425.9800	0.0766
426.2460	0.0918
426.5130	0.0571
426.7790	0.0296
427.0460	0.0393
427.3120	0.0558
427.5790	0.0390
427.8450	0.0377
428.1120	0.0498
428.3780	0.0604
428.6450	0.0935
428.9110	0.0559
429.1780	0.0445
429.4440	0.0475
429.7110	0.0410
429.9770	0.0288
430.2440	0.0473
430.5100	0.0542
430.7770	0.0507
431.0430	0.0530
431.3100	0.0557
431.5760	0.0490
431.8430	0.0608
432.1090	0.0523
432.3760	0.0437
432.6420	0.0627
432.9090	0.0506
433.1750	0.0360
433.4420	0.0392
433.7080	0.0711
433.9750	0.0810
434.2410	0.0608
434.5080	0.0590
434.7740	0.0539
435.0410	0.0511
435.3070	0.0385
435.5740	0.0473
435.8400	0.0587
436.1100	0.0706
436.3790	0.0593
436.6490	0.0589
436.9180	0.0651
437.1880	0.0672
437.4570	0.0545
437.7270	0.0444
437.9960	0.0523
438.2660	0.0387
438.5350	0.0424
438.8050	0.0588
439.0740	0.0589
439.3440	0.0514
439.6130	0.0516
439.8830	0.0430
440.1520	0.0505
440.4220	0.0535
440.6910	0.0494
440.9610	0.0487
441.2300	0.0483
441.5000	0.0478
441.7690	0.0397
442.0390	0.0386
442.3080	0.0454
442.5780	0.0539
442.8470	0.0472
443.1170	0.0630
443.3860	0.0519
443.6560	0.0408
443.9250	0.0339
444.1950	0.0627
444.4640	0.0652
444.7340	0.0431
445.0030	0.0337
445.2730	0.0481
445.5420	0.0631
445.8120	0.0500
446.0810	0.0525
446.3510	0.0626
446.6200	0.0575
446.8900	0.0473
447.1590	0.0376
447.4290	0.0510
447.6980	0.0687
447.9680	0.0487
448.2380	0.0487
448.5070	0.0563
448.7770	0.0529
449.0460	0.0429
449.3160	0.0513
449.5850	0.0603
449.8550	0.0616
450.1240	0.0536
450.3940	0.0463
450.6630	0.0502
450.9330	0.0535
451.2020	0.0412
451.4720	0.0446
451.7410	0.0621
452.0110	0.0538
452.2800	0.0341
452.5500	0.0365
452.8190	0.0426
453.0890	0.0566
453.3580	0.0486
453.6280	0.0392
453.8970	0.0471
454.1670	0.0585
454.4360	0.0499
454.7060	0.0394
454.9750	0.0434
455.2450	0.0520
455.5140	0.0514
455.7840	0.0337
456.0530	0.0448
456.3230	0.0449
456.5920	0.0358
456.8620	0.0460
457.1310	0.0582
457.4010	0.0570
457.6700	0.0380
457.9400	0.0443
458.2090	0.0437
458.4790	0.0449
458.7480	0.0400
459.0180	0.0264
459.2870	0.0418
459.5570	0.0508
459.8260	0.0759
460.0960	0.0950
460.3660	0.0798
460.6350	0.0588
460.9050	0.0584
461.1740	0.0380
461.4440	0.0414
461.7130	0.0462
461.9830	0.0342
462.2520	0.0254
462.5220	0.0375
462.7910	0.0439
463.0610	0.0339
463.3300	0.0521
463.6000	0.0592
463.8690	0.0534
464.1390	0.0339
464.4080	0.0260
464.6780	0.0379
464.9470	0.0481
465.2170	0.0464
465.4860	0.0436
465.7560	0.0451
466.0250	0.0549
466.2950	0.0421
466.5640	0.0438
466.8340	0.0566
467.1030	0.0759
467.3730	0.0498
467.6420	0.0367
467.9120	0.0406
468.1810	0.0455
468.4510	0.0339
468.7200	0.0343
468.9900	0.0441
469.2590	0.0673
469.5290	0.0624
469.7980	0.0363
470.0680	0.0394
470.3370	0.0468
470.6070	0.0327
470.8760	0.0323
471.1460	0.0541
471.4150	0.0615
471.6850	0.0478
471.9540	0.0465
472.2240	0.0475
472.4930	0.0472
472.7630	0.0436
473.0330	0.0534
473.3020	0.0778
473.5720	0.0567
473.8410	0.0296
474.1110	0.0345
474.3800	0.0412
474.6500	0.0443
474.9190	0.0447
475.1890	0.0319
475.4580	0.0508
475.7280	0.0542
475.9970	0.0643
476.2670	0.0496
476.5360	0.0444
476.8060	0.0540
477.0750	0.0375
477.3450	0.0452
477.6140	0.0488
477.8840	0.0697
478.1530	0.0500
478.4230	0.0325
478.6920	0.0448
478.9620	0.0458
479.2310	0.0302
479.5010	0.0306
479.7700	0.0523
480.0400	0.0651
480.3090	0.0399
480.5790	0.0260
480.8480	0.0341
481.1180	0.0627
481.3870	0.0505
481.6570	0.0464
481.9260	0.0452
482.1960	0.0431
482.4650	0.0402
482.7350	0.0409
483.0040	0.0482
483.2740	0.0459
483.5430	0.0400
483.8130	0.0272
484.0820	0.0359
484.3520	0.0470
484.6210	0.0403
484.8910	0.0335
485.1610	0.0402
485.4300	0.0650
485.7000	0.0432
485.9690	0.0328
486.2390	0.0409
486.5080	0.0548
486.7780	0.0442
487.0470	0.0329
487.3170	0.0354
487.5860	0.0395
487.8560	0.0327
488.1250	0.0368
488.3950	0.0387
488.6640	0.0414
488.9340	0.0446
489.2030	0.0329
489.4730	0.0341
489.7420	0.0424
490.0120	0.0308
490.2810	0.0264
490.5510	0.0386
490.8200	0.0502
491.0900	0.0582
491.3590	0.0457
491.6290	0.0400
491.8980	0.0583
492.1680	0.0492
492.4370	0.0276
492.7070	0.0324
492.9760	0.0614
493.2460	0.0409
493.5150	0.0327
493.7850	0.0489
494.0540	0.0592
494.3240	0.0477
494.5930	0.0283
494.8630	0.0307
495.1320	0.0438
495.4020	0.0595
495.6710	0.0424
495.9410	0.0376
496.2100	0.0523
496.4800	0.0426
496.7490	0.0461
497.0190	0.0458
497.2890	0.0559
497.5580	0.0406
497.8280	0.0363
498.0970	0.0435
498.3670	0.0565
498.6360	0.0500
498.9060	0.0330
499.1750	0.0334
499.4450	0.0423
499.7140	0.0336
499.9840	0.0273
500.2530	0.0328
500.5230	0.0429
500.7920	0.0373
501.0620	0.0331
501.3310	0.0516
501.6010	0.0556
501.8700	0.0464
502.1400	0.0379
502.4090	0.0363
502.6790	0.0390
502.9480	0.0391
503.2180	0.0388
503.4870	0.0658
503.7570	0.0515
504.0260	0.0389
504.2960	0.0377
504.5650	0.0502
504.8350	0.0473
505.1040	0.0380
505.3740	0.0484
505.6430	0.0438
505.9130	0.0734
506.1820	0.0629
506.4520	0.0413
506.7210	0.0759
506.9910	0.0728
507.2600	0.0378
507.5300	0.0382
507.7990	0.0403
508.0690	0.0394
508.3380	0.0426
508.6080	0.0366
508.8770	0.0449
509.1470	0.0551
509.4160	0.0459
509.6860	0.0309
509.9560	0.0517
510.2250	0.0614
510.4950	0.0394
510.7640	0.0316
511.0340	0.0445
511.3030	0.0502
511.5730	0.0394
511.8420	0.0282
512.1120	0.0446
512.3810	0.0502
512.6510	0.0351
512.9200	0.0279
513.1900	0.0403
513.4590	0.0386
513.7290	0.0350
513.9980	0.0433
514.2680	0.0523
514.5370	0.1028
514.8070	0.0778
515.0760	0.0435
515.3460	0.0424
515.6150	0.0371
515.8850	0.0401
516.1540	0.0467
516.4240	0.0459
516.6930	0.0468
516.9630	0.0372
517.2320	0.0374
517.5020	0.0393
517.7710	0.0354
518.0410	0.0370
518.3100	0.0400
518.5800	0.0394
518.8490	0.0646
519.1190	0.0479
519.3880	0.0357
519.6580	0.0503
519.9270	0.0433
520.1970	0.0267
520.4660	0.0258
520.7360	0.0344
521.0050	0.0442
521.2750	0.0352
521.5440	0.0465
521.8140	0.0395
522.0840	0.0447
522.3530	0.0449
522.6230	0.0282
522.8920	0.0394
523.1620	0.0475
523.4310	0.0466
523.7010	0.0385
523.9700	0.0368
524.2400	0.0330
524.5090	0.0335
524.7790	0.0258
525.0480	0.0258
525.3180	0.0447
525.5870	0.0331
525.8570	0.0267
526.1260	0.0489
526.3960	0.0485
526.6650	0.0337
526.9350	0.0288
527.2040	0.0340
527.4740	0.0413
527.7430	0.0353
528.0130	0.0244
528.2820	0.0300
528.5520	0.0379
528.8210	0.0380
529.0910	0.0380
529.3600	0.0353
529.6300	0.0381
529.8990	0.0316
530.1690	0.0307
530.4380	0.0471
530.7080	0.0556
530.9770	0.0436
531.2470	0.0359
531.5160	0.0524
531.7860	0.0501
532.0550	0.0314
532.3250	0.0247
532.5940	0.0392
532.8640	0.0469
533.1330	0.0381
533.4030	0.0267
533.6720	0.0347
533.9420	0.0506
534.2120	0.0339
534.4810	0.0232
534.7510	0.0353
535.0200	0.0726
535.2900	0.0461
535.5590	0.0264
535.8290	0.0389
536.0980	0.0570
536.3680	0.0477
536.6370	0.0358
536.9070	0.0502
537.1760	0.0525
537.4460	0.0451
537.7150	0.0357
537.9850	0.0383
538.2540	0.0447
538.5240	0.0430
538.7930	0.0445
539.0630	0.0394
539.3320	0.0488
539.6020	0.0465
539.8710	0.0370
540.1410	0.0457
540.4100	0.0549
540.6800	0.0379
540.9490	0.0352
541.2190	0.0436
541.4880	0.0628
541.7580	0.0598
542.0270	0.0401
542.2970	0.0385
542.5660	0.0431
542.8360	0.0277
543.1050	0.0267
543.3750	0.0376
543.6440	0.0400
543.9140	0.0326
544.1830	0.0279
544.4530	0.0431
544.7220	0.0414
544.9920	0.0265
545.2610	0.0305
545.5310	0.0423
545.8000	0.0443
546.0700	0.0361
546.3460	0.0289
546.6220	0.0362
546.8970	0.0384
547.1730	0.0387
547.4490	0.0291
547.7250	0.0453
548.0010	0.0465
548.2760	0.0403
548.5520	0.0359
548.8280	0.0381
549.1040	0.0431
549.3800	0.0378
549.6550	0.0464
549.9310	0.0536
550.2070	0.0613
550.4830	0.0407
550.7590	0.0296
551.0340	0.0352
551.3100	0.0473
551.5860	0.0369
551.8620	0.0449
552.1380	0.0429
552.4130	0.0374
552.6890	0.0282
552.9650	0.0251
553.2410	0.0296
553.5170	0.0382
553.7930	0.0312
554.0680	0.0273
554.3440	0.0351
554.6200	0.0507
554.8960	0.0365
555.1720	0.0236
555.4470	0.0365
555.7230	0.0372
555.9990	0.0293
556.2750	0.0289
556.5510	0.0442
556.8260	0.0415
557.1020	0.0301
557.3780	0.0381
557.6540	0.0422
557.9300	0.0391
558.2050	0.0325
558.4810	0.0264
558.7570	0.0350
559.0330	0.0368
559.3090	0.0461
559.5840	0.0447
559.8600	0.0439
560.1360	0.0398
560.4120	0.0334
560.6880	0.0298
560.9630	0.0351
561.2390	0.0745
561.5150	0.0478
561.7910	0.0268
562.0670	0.0360
562.3420	0.0444
562.6180	0.0339
562.8940	0.0210
563.1700	0.0379
563.4460	0.0398
563.7210	0.0243
563.9970	0.0229
564.2730	0.0364
564.5490	0.0468
564.8250	0.0390
565.1000	0.0585
565.3760	0.0494
565.6520	0.0410
565.9280	0.0456
566.2040	0.0302
566.4790	0.0375
566.7550	0.0415
567.0310	0.0344
567.3070	0.0271
567.5830	0.0343
567.8580	0.0388
568.1340	0.0298
568.4100	0.0230
568.6860	0.0402
568.9620	0.0402
569.2370	0.0493
569.5130	0.0345
569.7890	0.0404
570.0650	0.0415
570.3410	0.0331
570.6170	0.0297
570.8920	0.0379
571.1680	0.0396
571.4440	0.0334
571.7200	0.0311
571.9960	0.0457
572.2710	0.0587
572.5470	0.0382
572.8230	0.0248
573.0990	0.0392
573.3750	0.0647
573.6500	0.0450
573.9260	0.0297
574.2020	0.0343
574.4780	0.0387
574.7540	0.0321
575.0290	0.0292
575.3050	0.0467
575.5810	0.0407
575.8570	0.0285
576.1330	0.0247
576.4080	0.0358
576.6840	0.0460
576.9600	0.0394
577.2390	0.0295
577.5170	0.0322
577.7960	0.0415
578.0750	0.0467
578.3540	0.0320
578.6320	0.0331
578.9110	0.0435
579.1900	0.0545
579.4690	0.0427
579.7470	0.0395
580.0260	0.0409
580.3050	0.0305
580.5840	0.0396
580.8620	0.0403
581.1410	0.0434
581.4200	0.0369
581.6990	0.0319
581.9770	0.0437
582.2560	0.0433
582.5350	0.0463
582.8140	0.0378
583.0920	0.0425
583.3710	0.0431
583.6500	0.0380
583.9290	0.0341
584.2070	0.0360
584.4860	0.0467
584.7650	0.0453
585.0430	0.0294
585.3220	0.0479
585.6010	0.0532
585.8800	0.0404
586.1580	0.0295
586.4370	0.0335
586.7160	0.0401
586.9950	0.0398
587.2730	0.0318
587.5520	0.0353
587.8310	0.0445
588.1100	0.0449
588.3880	0.0289
588.6670	0.0280
588.9460	0.0321
589.2250	0.0235
589.5030	0.0208
589.7820	0.0279
590.0610	0.0328
590.3400	0.0450
590.6180	0.0576
590.8970	0.0687
591.1760	0.0528
591.4550	0.0346
591.7330	0.0311
592.0120	0.0424
592.2910	0.0564
592.5700	0.0405
592.8480	0.0458
593.1270	0.0393
593.4060	0.0386
593.6840	0.0284
593.9630	0.0290
594.2420	0.0389
594.5210	0.0383
594.7990	0.0356
595.0780	0.0335
595.3570	0.0339
595.6360	0.0346
595.9140	0.0335
596.1930	0.0284
596.4720	0.0331
596.7510	0.0412
597.0290	0.0430
597.3080	0.0392
597.5870	0.0332
597.8660	0.0364
598.1440	0.0308
598.4230	0.0254
598.7020	0.0313
598.9810	0.0385
599.2590	0.0463
599.5380	0.0388
599.8170	0.0331
