199.8780	-0.0491
200.1320	-0.0601
200.3850	0.0160
200.6390	-0.0222
200.8920	-0.0530
201.1460	-0.0850
201.4000	-0.0679
201.6530	-0.0560
201.9070	-0.0602
202.1610	0.0177
202.4140	-0.0218
202.6680	-0.0603
202.9220	-0.0355
203.1750	-0.0477
203.4290	-0.0397
203.6830	-0.0406
203.9360	-0.0345
204.1900	-0.0471
204.4430	-0.0551
204.6970	-0.0691
204.9510	-0.0202
205.2040	-0.0241
205.4580	-0.0569
205.7120	-0.1024
205.9650	-0.0199
206.2190	-0.0231
206.4730	-0.0458
206.7260	-0.0313
206.9800	-0.0656
207.2330	-0.0670
207.4870	-0.0544
207.7410	-0.0548
207.9940	-0.0340
208.2480	-0.0302
208.5020	-0.0368
208.7550	-0.0363
209.0090	-0.0646
209.2630	-0.0662
209.5160	-0.0170
209.7700	0.0494
210.0240	-0.0051
210.2770	-0.0736
210.5310	-0.0095
210.7840	0.1035
211.0380	0.0665
211.2920	0.1370
211.5450	0.0659
211.7990	-0.0124
212.0530	-0.0508
212.3060	-0.0669
212.5600	-0.0243
212.8140	0.0056
213.0670	0.0218
213.3210	-0.0420
213.5750	-0.0825
213.8280	-0.0790
214.0820	-0.0588
214.3350	-0.0378
214.5890	-0.0429
214.8430	-0.0312
215.0960	-0.0443
215.3500	-0.0723
215.6040	-0.0767
215.8570	0.0643
216.1110	0.0423
216.3650	0.0711
216.6180	0.0122
216.8720	-0.0341
217.1260	0.0862
217.3790	0.0062
217.6330	0.0256
217.8860	-0.0151
218.1400	0.0261
218.3940	0.0231
218.6470	-0.0045
218.9010	0.0956
219.1550	0.0297
219.4080	0.0718
219.6620	0.1076
219.9160	-0.0105
220.1690	-0.0668
220.4230	-0.0637
220.6770	-0.0656
220.9300	0.0879
221.1840	0.1534
221.4370	0.1445
221.6910	0.0435
221.9450	0.0739
222.1980	0.1001
222.4520	-0.0243
222.7060	-0.0671
222.9590	-0.0280
223.2130	-0.0544
223.4670	-0.0817
223.7200	-0.0948
223.9740	-0.0906
224.2280	0.0556
224.4810	-0.0262
224.7350	-0.0645
224.9880	-0.0521
225.2420	-0.0526
225.4960	-0.0860
225.7490	-0.0981
226.0030	-0.0698
226.2570	0.0128
226.5100	0.1054
226.7640	-0.0047
227.0180	-0.0748
227.2710	-0.0587
227.5250	-0.0699
227.7790	-0.0324
228.0320	-0.0467
228.2860	-0.0901
228.5390	-0.0705
228.7930	-0.0064
229.0470	-0.0470
229.3000	-0.0837
229.5540	-0.0902
229.8080	-0.0820
230.0610	-0.0450
230.3150	-0.0560
230.5690	0.0848
230.8220	0.0198
231.0760	-0.0148
231.3300	0.0398
231.5830	-0.0273
231.8370	0.0681
232.0900	0.1226
232.3440	0.1136
232.5980	-0.0183
232.8510	-0.0885
233.1050	0.0505
233.3590	-0.0019
233.6120	0.0298
233.8660	-0.0422
234.1200	0.0083
234.3730	-0.0370
234.6270	-0.1053
234.8800	0.0437
235.1340	0.0685
235.3880	-0.0322
235.6410	0.0705
235.8950	0.1374
236.1490	0.0930
236.4020	-0.0232
236.6560	-0.0929
236.9100	0.0332
237.1630	-0.0137
237.4170	0.0714
237.6710	0.1386
237.9240	0.0081
238.1780	-0.0267
238.4310	0.0335
238.6850	0.0403
238.9390	-0.0642
239.1920	0.0481
239.4460	-0.0225
239.7000	-0.0398
239.9530	0.0908
240.2070	-0.0172
240.4610	-0.0422
240.7140	-0.0436
240.9680	-0.0400
241.2220	0.0868
241.4750	0.1223
241.7290	0.1418
241.9820	0.0429
242.2360	-0.0499
242.4900	0.0456
242.7430	-0.0157
242.9970	-0.0771
243.2510	0.0413
243.5040	-0.0228
243.7580	0.0428
244.0120	0.0147
244.2650	-0.0584
244.5190	-0.1575
244.7730	0.0280
245.0260	0.0224
245.2800	-0.0297
245.5330	-0.0858
245.7870	0.0410
246.0410	0.0055
246.2940	-0.0903
246.5480	0.0370
246.8020	0.0206
247.0550	-0.0712
247.3090	-0.0873
247.5630	-0.0113
247.8160	-0.0320
248.0700	-0.0804
248.3240	-0.0932
248.5770	0.0376
248.8310	0.1305
249.0840	0.0045
249.3380	0.0076
249.5920	-0.0539
249.8450	0.0439
250.0990	-0.0206
250.3530	-0.0717
250.6060	0.0577
250.8600	0.0601
251.1140	0.0884
251.3670	-0.0334
251.6210	0.0111
251.8750	-0.0019
252.1280	-0.0809
252.3820	-0.0956
252.6350	-0.0729
252.8890	-0.0511
253.1430	0.0751
253.3960	-0.0028
253.6500	0.0417
253.9040	0.1059
254.1590	0.1258
254.4130	-0.0303
254.6670	-0.1051
254.9220	-0.1126
255.1760	-0.1193
255.4310	0.0494
255.6850	0.0102
255.9390	-0.0775
256.1940	0.0398
256.4480	0.1154
256.7020	0.1295
256.9570	0.0025
257.2110	-0.0619
257.4650	-0.0649
257.7200	-0.0997
257.9740	-0.0898
258.2280	-0.0951
258.4830	0.0277
258.7370	0.1068
258.9920	-0.0033
259.2460	-0.0661
259.5000	0.0081
259.7550	-0.0313
260.0090	-0.1019
260.2630	-0.0092
260.5180	-0.0466
260.7720	0.0173
261.0260	0.1175
261.2810	0.1365
261.5350	0.1431
261.7890	0.1444
262.0440	0.1430
262.2980	-0.0178
262.5530	0.0197
262.8070	0.1182
263.0610	0.1354
263.3160	-0.0028
263.5700	-0.0850
263.8240	0.0332
264.0790	0.0314
264.3330	0.0855
264.5870	0.1136
264.8420	-0.0521
265.0960	-0.0497
265.3510	-0.0934
265.6050	-0.1127
265.8590	0.0251
266.1140	0.0357
266.3680	-0.0573
266.6220	0.0062
266.8770	-0.0368
267.1310	-0.0362
267.3850	-0.0670
267.6400	0.0327
267.8940	0.0676
268.1480	0.0943
268.4030	-0.0230
268.6570	0.0421
268.9120	0.1278
269.1660	0.1155
269.4200	0.0031
269.6750	-0.0736
269.9290	-0.0337
270.1830	-0.0540
270.4380	-0.0525
270.6920	0.0488
270.9460	0.1041
271.2010	-0.0211
271.4550	0.0222
271.7090	0.1116
271.9640	0.1075
272.2180	0.1092
272.4730	0.1000
272.7270	-0.0372
272.9810	-0.0842
273.2360	-0.0523
273.4900	-0.0382
273.7440	-0.0491
273.9990	-0.0667
274.2530	0.0596
274.5070	0.1306
274.7620	0.1304
275.0160	0.1249
275.2710	-0.0371
275.5250	-0.0267
275.7790	0.1067
276.0340	0.1393
276.2880	0.1399
276.5420	0.0022
276.7970	-0.0672
277.0510	-0.0535
277.3050	-0.0658
277.5600	0.0426
277.8140	0.1147
278.0680	-0.0302
278.3230	0.0328
278.5770	-0.0125
278.8320	-0.0947
279.0860	-0.0967
279.3400	-0.1034
279.5950	-0.0760
279.8490	-0.0733
280.1030	0.0431
280.3580	-0.0170
280.6120	-0.0943
280.8660	0.0040
281.1210	0.0074
281.3750	0.0445
281.6290	0.1063
281.8840	-0.0262
282.1380	-0.1023
282.3930	-0.1027
282.6470	-0.1145
282.9010	-0.0899
283.1560	0.0494
283.4100	-0.0485
283.6640	0.0115
283.9190	0.0705
284.1730	0.0947
284.4270	0.0171
284.6820	0.0467
284.9360	-0.0065
285.1910	0.0053
285.4450	-0.0493
285.6990	0.0170
285.9540	0.0818
286.2080	0.0139
286.4620	-0.0775
286.7170	0.0274
286.9710	-0.0228
287.2250	-0.1122
287.4800	-0.0104
287.7340	0.0772
287.9880	-0.0312
288.2430	-0.0954
288.4970	0.0244
288.7520	0.0664
289.0060	-0.0544
289.2600	0.0046
289.5150	0.0321
289.7690	0.0851
290.0230	0.0129
290.2780	-0.0106
290.5320	-0.0568
290.7860	0.0165
291.0410	-0.0500
291.2950	-0.0972
291.5490	0.0458
291.8040	-0.0060
292.0580	-0.0082
292.3130	0.0775
292.5670	0.0786
292.8210	0.0698
293.0760	-0.0218
293.3300	-0.1091
293.5840	-0.1170
293.8390	0.0165
294.0930	0.1183
294.3470	0.1259
294.6020	-0.0087
294.8560	0.0069
295.1110	0.0474
295.3650	0.0946
295.6190	-0.0174
295.8740	-0.0659
296.1280	0.0229
296.3820	-0.0547
296.6370	-0.1207
296.8910	0.0286
297.1450	0.0320
297.4000	-0.0710
297.6540	-0.0842
297.9080	-0.0656
298.1630	0.0652
298.4170	0.1172
298.6720	0.0982
298.9260	0.0291
299.1800	0.0666
299.4350	0.0579
299.6890	0.0832
299.9430	0.1229
300.1980	0.0496
300.4520	-0.0408
300.7060	-0.0655
300.9610	-0.0794
301.2150	0.0573
301.4690	0.0123
301.7240	0.0552
301.9780	0.0411
302.2330	0.0070
302.4870	-0.0143
302.7410	-0.0362
302.9960	0.0727
303.2500	0.0190
303.5040	-0.0188
303.7590	0.0613
304.0130	0.0414
304.2670	-0.0277
304.5220	0.0828
304.7760	0.1007
305.0310	0.1356
305.2850	0.1685
305.5390	0.1221
305.7940	0.1318
306.0480	0.1684
306.3020	0.0713
306.5570	0.1182
306.8110	0.0830
307.0650	0.0275
307.3200	0.0196
307.5740	0.1308
307.8280	0.2061
308.0830	0.1720
308.3370	0.1874
308.5920	0.2036
308.8460	0.1114
309.1000	0.1543
309.3550	0.1355
309.6090	0.0858
309.8630	0.1659
310.1180	0.2135
310.3720	0.1498
310.6260	0.1797
310.8810	0.2219
311.1350	0.2094
311.3890	0.2093
311.6440	0.2066
311.8980	0.2245
312.1530	0.1758
312.4070	0.1504
312.6610	0.1646
312.9160	0.2492
313.1700	0.2619
313.4290	0.1772
313.6880	0.1577
313.9470	0.1641
314.2060	0.2211
314.4650	0.2161
314.7240	0.2057
314.9830	0.1815
315.2420	0.2155
315.5010	0.2589
315.7600	0.2677
316.0190	0.2115
316.2780	0.1857
316.5360	0.2553
316.7950	0.2437
317.0540	0.1667
317.3130	0.1713
317.5720	0.2238
317.8310	0.1963
318.0900	0.2386
318.3490	0.2324
318.6080	0.1792
318.8670	0.2163
319.1260	0.1863
319.3850	0.2136
319.6440	0.1831
319.9030	0.1841
320.1620	0.2413
320.4210	0.2501
320.6800	0.2564
320.9390	0.1891
321.1980	0.2061
321.4570	0.1616
321.7160	0.2211
321.9750	0.1680
322.2340	0.0940
322.4930	0.1058
322.7520	0.0865
323.0100	0.0888
323.2690	0.1105
323.5280	0.0867
323.7870	0.1514
324.0460	0.2180
324.3050	0.1534
324.5640	0.1643
324.8230	0.1399
325.0820	0.1515
325.3410	0.1074
325.6000	0.1352
325.8590	0.1596
326.1180	0.0966
326.3770	0.0498
326.6360	0.0429
326.8950	0.0477
327.1540	0.0476
327.4130	0.1355
327.6720	0.0945
327.9310	0.0158
328.1900	0.0363
328.4490	0.0343
328.7080	0.1033
328.9670	0.1801
329.2260	0.1880
329.4850	0.0798
329.7430	0.0061
330.0020	-0.0008
330.2610	0.0614
330.5200	0.0381
330.7790	0.0044
331.0380	0.0431
331.2970	0.1384
331.5560	0.1720
331.8150	0.1719
332.0740	0.1817
332.3330	0.1751
332.5920	0.1018
332.8510	0.1410
333.1100	0.1561
333.3690	0.1635
333.6280	0.1740
333.8870	0.0562
334.1460	0.0293
334.4050	0.0215
334.6640	-0.0062
334.9230	0.0833
335.1820	0.1447
335.4410	0.1072
335.7000	0.0414
335.9590	0.0694
336.2170	0.1364
336.4760	0.1415
336.7350	0.0434
336.9940	0.0534
337.2530	0.0178
337.5120	0.1099
337.7710	0.0878
338.0300	0.0147
338.2890	0.0051
338.5480	0.0958
338.8070	0.0592
339.0660	0.0102
339.3250	0.0925
339.5840	0.1237
339.8430	0.1127
340.1020	0.0897
340.3610	0.1125
340.6200	0.0813
340.8790	0.0134
341.1380	0.0148
341.3970	0.1417
341.6560	0.1926
341.9150	0.1710
342.1740	0.0825
342.4330	0.1426
342.6910	0.2012
342.9500	0.0982
343.2090	0.1077
343.4680	0.0590
343.7270	0.1137
343.9860	0.1781
344.2450	0.1804
344.5040	0.0859
344.7630	0.0226
345.0220	0.1236
345.2810	0.1885
345.5400	0.1672
345.7990	-0.0588
346.0580	-0.0229
346.3170	0.1235
346.5760	0.0607
346.8350	0.1231
347.0940	0.1738
347.3530	0.1803
347.6120	0.1575
347.8710	0.0534
348.1300	0.0381
348.3890	0.1166
348.6480	0.0880
348.9070	0.1401
349.1660	0.1849
349.4240	0.1912
349.6830	0.2135
349.9420	0.0975
350.2010	0.0677
350.4600	0.0414
350.7190	0.0470
350.9780	0.1409
351.2370	0.1818
351.4960	0.1562
351.7550	0.1545
352.0140	0.1517
352.2730	0.1757
352.5320	0.1658
352.7910	0.0595
353.0500	0.0976
353.3090	0.1469
353.5680	0.1625
353.8270	0.1762
354.0860	0.0763
354.3450	0.0149
354.6040	0.1178
354.8630	0.1011
355.1220	0.1385
355.3810	0.0739
355.6400	0.1182
355.8980	0.0461
356.1570	-0.0140
356.4160	0.0755
356.6750	0.0305
356.9340	0.0709
357.1930	0.0676
357.4520	0.0254
357.7110	0.0176
357.9700	0.0903
358.2290	0.1515
358.4880	0.0532
358.7470	0.0796
359.0060	0.1228
359.2650	0.0635
359.5240	0.1067
359.7830	0.1523
360.0420	0.1700
360.3010	0.0593
360.5600	0.1119
360.8190	0.1230
361.0780	0.1181
361.3370	0.0811
361.5960	0.0382
361.8550	0.1284
362.1140	0.1164
362.3720	0.0581
362.6310	0.1189
362.8900	0.0821
363.1490	0.1342
363.4080	0.0852
363.6670	0.0683
363.9260	0.1485
364.1850	0.1697
364.4440	0.1832
364.7030	0.1617
364.9620	0.0512
365.2210	-0.0069
365.4800	0.1047
365.7390	0.0538
365.9990	0.0089
366.2580	0.1220
366.5180	0.1732
366.7770	0.1539
367.0370	0.0493
367.2960	0.1068
367.5560	0.1194
367.8150	0.0312
368.0750	0.0037
368.3340	0.1054
368.5940	0.1664
368.8530	0.0531
369.1130	0.1167
369.3720	0.1611
369.6320	0.0457
369.8910	0.1034
370.1500	0.1602
370.4100	0.0694
370.6690	0.0291
370.9290	0.0805
371.1880	0.1670
371.4480	0.1836
371.7070	0.0696
371.9670	0.1091
372.2260	0.1537
372.4860	0.0526
372.7450	0.1234
373.0050	0.0363
373.2640	0.0503
373.5240	0.1616
373.7830	0.1391
374.0430	0.0261
374.3020	0.0885
374.5610	0.0711
374.8210	0.0970
375.0800	0.0754
375.3400	0.0052
375.5990	0.0688
375.8590	0.0386
376.1180	0.0883
376.3780	0.1755
376.6370	0.0562
376.8970	0.0774
377.1560	0.1646
377.4160	0.1809
377.6750	0.1451
377.9350	0.0807
378.1940	0.0184
378.4540	0.0011
378.7130	0.0183
378.9720	0.1041
379.2320	0.0477
379.4910	0.0540
379.7510	0.1458
380.0100	0.1282
380.2700	0.1378
380.5290	0.1683
380.7890	0.0614
381.0480	0.0380
381.3080	0.1441
381.5670	0.1590
381.8270	0.1548
382.0860	0.1164
382.3460	0.1168
382.6050	0.1240
382.8650	0.1555
383.1240	0.0869
383.3830	0.0785
383.6430	0.0117
383.9020	0.0966
384.1620	0.1641
384.4210	0.1374
384.6810	0.0268
384.9400	-0.0161
385.2000	0.0727
385.4590	0.0430
385.7190	0.1068
385.9780	0.1402
386.2380	0.1338
386.4970	0.1543
386.7570	0.1445
387.0160	0.0258
387.2760	-0.0243
387.5350	0.0550
387.7940	0.0152
388.0540	0.0862
388.3130	0.0621
388.5730	0.0931
388.8320	0.1301
389.0920	0.1592
389.3510	0.1807
389.6110	0.1414
389.8700	0.0543
390.1300	0.0337
390.3890	0.0535
390.6490	0.1105
390.9080	0.1264
391.1680	0.0632
391.4270	0.0005
391.6860	-0.0297
391.9460	0.0813
392.2050	0.0623
392.4650	-0.0107
392.7240	0.0859
392.9840	0.0369
393.2430	-0.0092
393.5030	0.0380
393.7620	0.0429
394.0220	0.1123
394.2810	0.1417
394.5410	0.1599
394.8000	0.0862
395.0600	0.0997
395.3190	0.1181
395.5790	0.1324
395.8380	0.1625
396.0970	0.0567
396.3570	-0.0385
396.6160	0.0513
396.8760	0.1436
397.1350	0.1403
397.3950	0.0825
397.6540	0.1011
397.9140	-0.0004
398.1730	-0.0404
398.4330	-0.0417
398.6920	-0.0202
398.9520	-0.0179
399.2110	0.1065
399.4710	0.0463
399.7300	0.0854
399.9900	0.0427
400.2490	0.1026
400.5080	0.1666
400.7680	0.1516
401.0270	0.0388
401.2870	-0.0113
401.5460	0.1061
401.8060	0.0990
402.0650	0.0162
402.3250	0.1008
402.5840	0.0210
402.8440	0.0703
403.1030	0.1561
403.3630	0.0116
403.6220	0.0436
403.8820	0.0910
404.1410	0.0418
404.4010	-0.0043
404.6600	0.0941
404.9260	0.1760
405.1930	0.1355
405.4590	0.0655
405.7260	0.0601
405.9920	0.0914
406.2590	0.1418
406.5250	0.1479
406.7920	0.0636
407.0580	0.1216
407.3250	0.1391
407.5910	0.0399
407.8580	0.0303
408.1240	0.0239
408.3910	0.0791
408.6570	0.1394
408.9240	0.1709
409.1900	0.1791
409.4570	0.0338
409.7230	0.0948
409.9900	0.0475
410.2560	-0.0456
410.5230	0.0456
410.7890	0.1131
411.0560	0.1601
411.3220	0.1343
411.5890	0.1039
411.8550	0.0271
412.1220	0.1127
412.3880	0.1617
412.6550	0.1227
412.9210	0.1282
413.1880	0.0473
413.4540	-0.0433
413.7210	0.0348
413.9870	0.0350
414.2540	0.1044
414.5200	0.1476
414.7870	0.1249
415.0530	0.0264
415.3200	0.1087
415.5860	0.1398
415.8530	0.1159
416.1190	0.1593
416.3860	0.1696
416.6520	0.1165
416.9190	0.1211
417.1850	0.1211
417.4520	0.0436
417.7180	-0.0121
417.9850	0.0115
418.2510	0.1039
418.5180	0.1494
418.7840	0.1082
419.0510	0.1470
419.3170	0.1835
419.5840	0.1200
419.8500	0.1184
420.1170	0.1490
420.3830	0.1195
420.6500	0.0970
420.9160	0.1402
421.1830	0.1144
421.4490	0.0702
421.7160	0.1286
421.9820	0.1115
422.2490	0.1258
422.5150	0.0294
422.7820	0.0551
423.0480	0.0899
423.3150	0.0052
423.5810	0.0447
423.8480	-0.0042
424.1140	-0.0567
424.3810	0.0834
424.6470	0.0225
424.9140	0.0920
425.1800	0.1729
425.4470	0.0210
425.7130	-0.0499
425.9800	-0.0473
426.2460	-0.0497
426.5130	0.1004
426.7790	0.1348
427.0460	0.1277
427.3120	0.0468
427.5790	0.0832
427.8450	0.0790
428.1120	0.1351
428.3780	0.0487
428.6450	-0.0753
428.9110	0.0229
429.1780	0.1204
429.4440	0.1541
429.7110	0.1473
429.9770	0.1091
430.2440	0.0639
430.5100	0.1203
430.7770	0.0690
431.0430	0.0828
431.3100	0.0488
431.5760	0.0888
431.8430	0.0200
432.1090	0.0027
432.3760	0.1051
432.6420	0.1555
432.9090	0.1609
433.1750	0.1578
433.4420	0.1337
433.7080	0.0125
433.9750	-0.0614
434.2410	-0.0507
434.5080	-0.0360
434.7740	0.0800
435.0410	0.0245
435.3070	0.0603
435.5740	0.0782
435.8400	0.0364
436.1100	-0.0212
436.3790	-0.0329
436.6490	-0.0150
436.9180	-0.0435
437.1880	-0.0571
437.4570	-0.0204
437.7270	0.0859
437.9960	0.1081
438.2660	0.1231
438.5350	0.0374
438.8050	-0.0087
439.0740	0.0240
439.3440	0.0048
439.6130	-0.0181
439.8830	0.0555
440.1520	0.1109
440.4220	0.0585
440.6910	-0.0026
440.9610	0.0881
441.2300	0.1529
441.5000	0.0504
441.7690	0.0881
442.0390	0.1343
442.3080	0.1610
442.5780	0.0225
442.8470	0.0257
443.1170	0.0042
443.3860	0.0631
443.6560	0.1246
443.9250	0.1292
444.1950	0.0106
444.4640	0.0361
444.7340	0.1345
445.0030	0.1700
445.2730	0.1408
445.5420	0.0121
445.8120	0.0404
446.0810	-0.0018
446.3510	-0.0390
446.6200	0.0868
446.8900	0.0887
447.1590	0.0999
447.4290	0.0273
447.6980	-0.0536
447.9680	0.0661
448.2380	0.0067
448.5070	0.0176
448.7770	0.1165
449.0460	0.1614
449.3160	0.0239
449.5850	-0.0786
449.8550	-0.0461
450.1240	-0.0251
450.3940	-0.0090
450.6630	0.0773
450.9330	0.1362
451.2020	0.1439
451.4720	0.0318
451.7410	-0.0405
452.0110	0.0823
452.2800	0.1613
452.5500	0.1178
452.8190	0.1276
453.0890	0.0263
453.3580	0.1011
453.6280	0.1511
453.8970	0.1363
454.1670	0.0145
454.4360	0.0362
454.7060	0.1073
454.9750	0.1405
455.2450	0.1302
455.5140	0.0344
455.7840	0.0775
456.0530	0.0730
456.3230	0.0909
456.5920	0.1330
456.8620	0.0260
457.1310	0.0178
457.4010	0.0784
457.6700	0.1070
457.9400	0.0091
458.2090	0.0823
458.4790	-0.0121
458.7480	0.0773
459.0180	0.1120
459.2870	0.1164
459.5570	0.0882
459.8260	-0.0099
460.0960	-0.0263
460.3660	-0.0351
460.6350	0.0732
460.9050	0.0133
461.1740	0.0534
461.4440	-0.0001
461.7130	0.0602
461.9830	0.1304
462.2520	0.1303
462.5220	0.1210
462.7910	0.1187
463.0610	0.1348
463.3300	0.0291
463.6000	0.0315
463.8690	0.1130
464.1390	0.1109
464.4080	0.1086
464.6780	0.1252
464.9470	0.1360
465.2170	0.0733
465.4860	0.0251
465.7560	0.1148
466.0250	0.0644
466.2950	0.0883
466.5640	0.0367
466.8340	0.0151
467.1030	-0.0457
467.3730	-0.0674
467.6420	0.0400
467.9120	0.1192
468.1810	0.1431
468.4510	0.1139
468.7200	0.1182
468.9900	0.1467
469.2590	0.0042
469.5290	-0.0601
469.7980	0.0405
470.0680	0.1427
470.3370	0.1532
470.6070	0.1214
470.8760	0.1151
471.1460	0.0255
471.4150	-0.0187
471.6850	0.0913
471.9540	0.1233
472.2240	0.1318
472.4930	0.1457
472.7630	0.0979
473.0330	-0.0038
473.3020	-0.0704
473.5720	0.0322
473.8410	0.1146
474.1110	0.1339
474.3800	0.1327
474.6500	0.1413
474.9190	0.0838
475.1890	0.0851
475.4580	0.0310
475.7280	-0.0214
475.9970	-0.0695
476.2670	0.0583
476.5360	0.1483
476.8060	0.1372
477.0750	0.0996
477.3450	-0.0188
477.6140	0.0684
477.8840	-0.0044
478.1530	0.0567
478.4230	0.1583
478.6920	0.1607
478.9620	0.1475
479.2310	0.1069
479.5010	0.1284
479.7700	0.0611
480.0400	-0.0457
480.3090	0.0223
480.5790	0.0972
480.8480	0.0970
481.1180	-0.0211
481.3870	0.0666
481.6570	0.0324
481.9260	0.0639
482.1960	0.1270
482.4650	0.1304
482.7350	0.1048
483.0040	0.1304
483.2740	0.1424
483.5430	0.1169
483.8130	0.0609
484.0820	0.1036
484.3520	0.1439
484.6210	0.0266
484.8910	0.0644
485.1610	0.1433
485.4300	0.0239
485.7000	0.0134
485.9690	0.0940
486.2390	0.1385
486.5080	0.0581
486.7780	0.1021
487.0470	0.1559
487.3170	0.1126
487.5860	0.1275
487.8560	0.1349
488.1250	0.0777
488.3950	0.0767
488.6640	0.1118
488.9340	0.0350
489.2030	0.0537
489.4730	0.0839
489.7420	0.1163
490.0120	0.1178
490.2810	0.1145
490.5510	0.1201
490.8200	0.1150
491.0900	0.0121
491.3590	0.0770
491.6290	0.1336
491.8980	0.0144
492.1680	0.0644
492.4370	0.1238
492.7070	0.1203
492.9760	-0.0077
493.2460	0.0302
493.5150	0.0758
493.7850	0.0382
494.0540	-0.0179
494.3240	0.0505
494.5930	0.1111
494.8630	0.0949
495.1320	0.1202
495.4020	0.0355
495.6710	0.0630
495.9410	0.1133
496.2100	0.0196
496.4800	0.0816
496.7490	0.0286
497.0190	0.0719
497.2890	0.0854
497.5580	0.0959
497.8280	-0.0200
498.0970	0.0393
498.3670	0.0058
498.6360	0.0212
498.9060	0.1131
499.1750	0.1066
499.4450	0.1260
499.7140	0.1267
499.9840	0.1063
500.2530	0.0959
500.5230	0.1159
500.7920	0.1413
501.0620	0.1614
501.3310	0.0426
501.6010	0.0223
501.8700	0.0534
502.1400	0.1189
502.4090	0.1317
502.6790	0.1247
502.9480	0.1309
503.2180	0.1078
503.4870	-0.0206
503.7570	0.0153
504.0260	0.1081
504.2960	0.1513
504.5650	0.0445
504.8350	0.0867
505.1040	0.1394
505.3740	0.0087
505.6430	0.0493
505.9130	0.0123
506.1820	-0.0538
506.4520	0.0644
506.7210	-0.0409
506.9910	-0.0662
507.2600	0.0572
507.5300	0.0651
507.7990	0.0872
508.0690	0.0992
508.3380	-0.0062
508.6080	0.0671
508.8770	0.0949
509.1470	0.0430
509.4160	0.1043
509.6860	0.1301
509.9560	0.0162
510.2250	-0.0079
510.4950	0.0743
510.7640	0.1301
511.0340	0.1519
511.3030	0.1565
511.5730	0.1535
511.8420	0.1262
512.1120	0.0258
512.3810	0.0906
512.6510	0.1442
512.9200	0.1259
513.1900	0.1009
513.4590	0.1049
513.7290	0.1050
513.9980	-0.0070
514.2680	-0.0424
514.5370	-0.0583
514.8070	-0.0524
515.0760	0.0650
515.3460	0.1333
515.6150	0.1078
515.8850	0.0001
516.1540	-0.0630
516.4240	0.0603
516.6930	0.1259
516.9630	0.1263
517.2320	0.0838
517.5020	0.0903
517.7710	0.0908
518.0410	0.0507
518.3100	-0.0059
518.5800	0.0554
518.8490	-0.0332
519.1190	0.0512
519.3880	0.1172
519.6580	0.0096
519.9270	0.0524
520.1970	0.1035
520.4660	0.1185
520.7360	0.1227
521.0050	0.0681
521.2750	0.0808
521.5440	0.0133
521.8140	0.0366
522.0840	0.0017
522.3530	0.0005
522.6230	0.0627
522.8920	0.0980
523.1620	0.1027
523.4310	-0.0013
523.7010	0.0336
523.9700	0.0906
524.2400	0.0874
524.5090	0.1220
524.7790	0.1104
525.0480	0.0722
525.3180	0.0117
525.5870	0.0479
525.8570	0.1035
526.1260	-0.0158
526.3960	0.0508
526.6650	0.1261
526.9350	0.1327
527.2040	0.1180
527.4740	0.1277
527.7430	0.1321
528.0130	0.1379
528.2820	0.1058
528.5520	0.1108
528.8210	0.0615
529.0910	0.0148
529.3600	0.0485
529.6300	0.1157
529.8990	0.1319
530.1690	0.1378
530.4380	0.0273
530.7080	-0.0562
530.9770	-0.0079
531.2470	0.0795
531.5160	-0.0054
531.7860	0.0562
532.0550	0.0993
532.3250	0.1062
532.5940	0.1293
532.8640	0.1361
533.1330	0.1417
533.4030	0.1205
533.6720	0.1031
533.9420	-0.0013
534.2120	0.0348
534.4810	0.0878
534.7510	0.1188
535.0200	-0.0174
535.2900	0.0601
535.5590	0.1549
535.8290	0.1479
536.0980	-0.0035
536.3680	-0.0263
536.6370	0.0870
536.9070	0.0115
537.1760	0.0702
537.4460	0.0658
537.7150	0.0901
537.9850	0.1352
538.2540	0.1168
538.5240	0.0758
538.7930	-0.0252
539.0630	0.0322
539.3320	0.0260
539.6020	0.0429
539.8710	0.0932
540.1410	0.0927
540.4100	0.0097
540.6800	0.0623
540.9490	0.0825
541.2190	0.1223
541.4880	0.0006
541.7580	-0.0944
542.0270	-0.0140
542.2970	0.1025
542.5660	0.1087
542.8360	0.0719
543.1050	0.1040
543.3750	0.1276
543.6440	0.1267
543.9140	0.1238
544.1830	0.1247
544.4530	0.0787
544.7220	0.0768
544.9920	0.0886
545.2610	0.0721
545.5310	0.1106
545.8000	0.1268
546.0700	0.1317
546.3460	0.1362
546.6220	0.1280
546.8970	0.1081
547.1730	0.0762
547.4490	0.0790
547.7250	-0.0280
548.0010	0.0379
548.2760	0.0530
548.5520	0.0904
548.8280	0.1299
549.1040	0.1338
549.3800	0.1343
549.6550	0.0242
549.9310	-0.0236
550.2070	-0.0211
550.4830	0.0429
550.7590	0.1158
551.0340	0.1025
551.3100	0.0373
551.5860	0.0871
551.8620	-0.0083
552.1380	0.0226
552.4130	0.0997
552.6890	0.0880
552.9650	0.1037
553.2410	0.1173
553.5170	0.1337
553.7930	0.1271
554.0680	0.1199
554.3440	0.1042
554.6200	-0.0205
554.8960	0.0267
555.1720	0.1036
555.4470	0.1258
555.7230	0.1110
555.9990	0.1249
556.2750	0.1122
556.5510	0.0234
556.8260	0.0609
557.1020	0.1051
557.3780	-0.0006
557.6540	0.0557
557.9300	0.1129
558.2050	0.1360
558.4810	0.1022
558.7570	0.1054
559.0330	0.0972
559.3090	-0.0389
559.5840	-0.0357
559.8600	0.0700
560.1360	0.1209
560.4120	0.1339
560.6880	0.1270
560.9630	0.1301
561.2390	-0.0266
561.5150	0.0386
561.7910	0.1036
562.0670	0.1161
562.3420	0.0845
562.6180	0.0790
562.8940	0.0738
563.1700	0.0777
563.4460	0.0845
563.7210	0.0834
563.9970	0.1083
564.2730	0.1338
564.5490	0.0593
564.8250	0.0648
565.1000	-0.0312
565.3760	0.0336
565.6520	0.1159
565.9280	-0.0180
566.2040	0.0189
566.4790	0.1067
566.7550	0.1149
567.0310	0.1286
567.3070	0.1061
567.5830	0.0010
567.8580	0.0316
568.1340	0.1027
568.4100	0.0972
568.6860	0.0896
568.9620	0.0931
569.2370	-0.0268
569.5130	0.0138
569.7890	0.0766
570.0650	0.0903
570.3410	0.1078
570.6170	0.1124
570.8920	0.1267
571.1680	0.1414
571.4440	0.1434
571.7200	0.1439
571.9960	0.0769
572.2710	-0.0377
572.5470	0.0341
572.8230	0.0868
573.0990	0.0893
573.3750	-0.0487
573.6500	0.0251
573.9260	0.1396
574.2020	0.1203
574.4780	0.1307
574.7540	0.1314
575.0290	0.1348
575.3050	0.0201
575.5810	0.0362
575.8570	0.0864
576.1330	0.0950
576.4080	0.1359
576.6840	0.1168
576.9600	0.0887
577.2390	0.1049
577.5170	0.1312
577.7960	0.1226
578.0750	-0.0209
578.3540	0.0054
578.6320	0.0792
578.9110	-0.0100
579.1900	-0.0839
579.4690	0.0438
579.7470	0.1348
580.0260	0.1403
580.3050	0.1245
580.5840	-0.0163
580.8620	0.0134
581.1410	0.0479
581.4200	0.0731
581.6990	0.0995
581.9770	0.0996
582.2560	0.1165
582.5350	-0.0117
582.8140	0.0597
583.0920	0.0675
583.3710	0.0979
583.6500	0.0711
583.9290	-0.0182
584.2070	0.0272
584.4860	0.0401
584.7650	-0.0281
585.0430	0.0354
585.3220	-0.0210
585.6010	0.0418
585.8800	0.1084
586.1580	0.1048
586.4370	0.0887
586.7160	0.1015
586.9950	0.0306
587.2730	0.0685
587.5520	0.1313
587.8310	0.0963
588.1100	-0.0440
588.3880	0.0156
588.6670	0.0939
588.9460	0.0792
589.2250	0.0636
589.5030	0.0738
589.7820	0.0682
590.0610	0.0759
590.3400	-0.0500
590.6180	-0.1214
590.8970	-0.1140
591.1760	0.0408
591.4550	0.1399
591.7330	0.1217
592.0120	0.0202
592.2910	-0.0637
592.5700	0.0401
592.8480	-0.0232
593.1270	0.0100
593.4060	-0.0223
593.6840	0.0316
593.9630	0.0944
594.2420	0.1143
594.5210	0.1098
594.7990	0.0116
595.0780	0.0666
595.3570	0.1092
595.6360	0.1105
595.9140	0.0937
596.1930	0.0928
596.4720	0.1127
596.7510	0.1139
597.0290	0.0261
597.3080	-0.0295
597.5870	0.0310
597.8660	0.0919
598.1440	0.1005
598.4230	0.1055
598.7020	0.1023
598.9810	0.0945
599.2590	-0.0128
599.5380	0.0411
599.8170	0.0953
