199.8780	0.1175
200.1320	0.1874
200.3850	0.0102
200.6390	0.0455
200.8920	0.1367
201.1460	0.0700
201.4000	0.0460
201.6530	0.0554
201.9070	0.1103
202.1610	0.0021
202.4140	-0.0242
202.6680	0.1685
202.9220	0.1337
203.1750	0.1048
203.4290	0.0352
203.6830	0.1741
203.9360	0.2798
204.1900	0.1377
204.4430	0.3662
204.6970	0.4437
204.9510	0.1637
205.2040	0.0279
205.4580	0.1157
205.7120	0.2970
205.9650	0.1469
206.2190	0.1190
206.4730	0.1355
206.7260	0.0976
206.9800	0.2130
207.2330	0.0805
207.4870	-0.0441
207.7410	0.0854
207.9940	0.1809
208.2480	0.1723
208.5020	0.0745
208.7550	0.1043
209.0090	0.2440
209.2630	0.3233
209.5160	0.1169
209.7700	0.0251
210.0240	0.2165
210.2770	0.1640
210.5310	0.0099
210.7840	-0.0346
211.0380	0.0122
211.2920	-0.0453
211.5450	-0.0143
211.7990	0.2366
212.0530	0.3846
212.3060	0.3064
212.5600	0.0835
212.8140	0.0416
213.0670	0.0643
213.3210	0.1087
213.5750	0.1140
213.8280	0.1899
214.0820	0.3647
214.3350	0.1771
214.5890	0.0743
214.8430	0.0918
215.0960	0.3157
215.3500	0.2271
215.6040	0.1899
215.8570	0.0952
216.1110	0.1306
216.3650	0.0380
216.6180	0.0146
216.8720	0.0915
217.1260	0.0445
217.3790	0.1512
217.6330	0.0530
217.8860	0.1099
218.1400	0.1072
218.3940	0.0408
218.6470	0.0276
218.9010	0.0292
219.1550	0.1041
219.4080	-0.0001
219.6620	-0.0468
219.9160	0.1008
220.1690	0.1978
220.4230	0.1699
220.6770	0.1555
220.9300	0.0467
221.1840	0.0063
221.4370	-0.0453
221.6910	-0.0463
221.9450	0.0245
222.1980	0.0759
222.4520	0.1347
222.7060	0.2215
222.9590	0.1802
223.2130	0.2184
223.4670	0.1875
223.7200	0.1941
223.9740	0.1881
224.2280	0.0842
224.4810	0.1385
224.7350	0.0951
224.9880	0.1533
225.2420	0.3464
225.4960	0.2270
225.7490	0.3465
226.0030	0.3335
226.2570	0.1669
226.5100	0.0176
226.7640	0.2466
227.0180	0.2675
227.2710	0.2350
227.5250	0.1511
227.7790	0.0496
228.0320	0.1612
228.2860	0.3338
228.5390	0.2136
228.7930	0.0636
229.0470	0.1613
229.3000	0.4270
229.5540	0.4315
229.8080	0.1881
230.0610	0.2318
230.3150	0.3044
230.5690	0.0775
230.8220	0.0857
231.0760	0.1617
231.3300	0.1201
231.5830	0.1567
231.8370	0.0414
232.0900	0.0405
232.3440	0.0879
232.5980	0.1289
232.8510	0.2063
233.1050	0.1416
233.3590	0.4195
233.6120	0.2200
233.8660	0.0996
234.1200	0.1311
234.3730	0.3200
234.6270	0.2117
234.8800	0.0065
235.1340	0.0665
235.3880	0.3039
235.6410	0.1491
235.8950	0.0025
236.1490	0.0575
236.4020	0.1513
236.6560	0.1967
236.9100	0.1018
237.1630	0.2051
237.4170	0.1405
237.6710	-0.0282
237.9240	0.0754
238.1780	0.1623
238.4310	0.1237
238.6850	0.0660
238.9390	0.1543
239.1920	0.0971
239.4460	0.2868
239.7000	0.2115
239.9530	-0.0024
240.2070	0.2071
240.4610	0.2368
240.7140	0.1381
240.9680	0.0942
241.2220	0.0708
241.4750	0.0944
241.7290	0.0374
241.9820	0.0791
242.2360	0.2510
242.4900	0.1976
242.7430	0.1306
242.9970	0.4833
243.2510	0.2433
243.5040	0.1451
243.7580	0.0256
244.0120	0.0596
244.2650	0.4922
244.5190	0.3994
244.7730	0.1026
245.0260	0.0885
245.2800	0.1482
245.5330	0.2685
245.7870	0.1433
246.0410	0.1188
246.2940	0.2839
246.5480	0.2011
246.8020	0.1273
247.0550	0.1733
247.3090	0.3421
247.5630	0.2661
247.8160	0.1825
248.0700	0.2151
248.3240	0.4050
248.5770	0.2061
248.8310	0.0275
249.0840	0.1363
249.3380	0.1663
249.5920	0.2478
249.8450	0.0959
250.0990	0.2019
250.3530	0.3135
250.6060	0.1857
250.8600	0.0306
251.1140	-0.0260
251.3670	0.3004
251.6210	0.2781
251.8750	0.1564
252.1280	0.2247
252.3820	0.2664
252.6350	0.2286
252.8890	0.1630
253.1430	0.0446
253.3960	0.1555
253.6500	0.2826
253.9040	0.1346
254.1590	0.0185
254.4130	0.2005
254.6670	0.3672
254.9220	0.3921
255.1760	0.4000
255.4310	0.1911
255.6850	0.1947
255.9390	0.2373
256.1940	0.0628
256.4480	0.0581
256.7020	0.1144
256.9570	0.1813
257.2110	0.2199
257.4650	0.2853
257.7200	0.6384
257.9740	0.3788
258.2280	0.2500
258.4830	0.1520
258.7370	0.1188
258.9920	0.1630
259.2460	0.1629
259.5000	0.1826
259.7550	0.2985
260.0090	0.2979
260.2630	0.1526
260.5180	0.2061
260.7720	0.2053
261.0260	0.0942
261.2810	0.0506
261.5350	0.0889
261.7890	0.1311
262.0440	0.0570
262.2980	0.2992
262.5530	0.2742
262.8070	0.1166
263.0610	0.0431
263.3160	0.1778
263.5700	0.2932
263.8240	0.1408
264.0790	0.1046
264.3330	0.0404
264.5870	0.0397
264.8420	0.3829
265.0960	0.3008
265.3510	0.3610
265.6050	0.3780
265.8590	0.2339
266.1140	0.1358
266.3680	0.1742
266.6220	0.1928
266.8770	0.2325
267.1310	0.1856
267.3850	0.2657
267.6400	0.1830
267.8940	0.1610
268.1480	0.0735
268.4030	0.1334
268.6570	0.1548
268.9120	0.0952
269.1660	0.0698
269.4200	0.1584
269.6750	0.2483
269.9290	0.2360
270.1830	0.2389
270.4380	0.2290
270.6920	0.2250
270.9460	0.1994
271.2010	0.4247
271.4550	0.1879
271.7090	0.0665
271.9640	0.1699
272.2180	0.0730
272.4730	-0.0055
272.7270	0.2231
272.9810	0.3134
273.2360	0.1218
273.4900	0.1073
273.7440	0.2401
273.9990	0.3021
274.2530	0.1278
274.5070	0.0458
274.7620	0.1283
275.0160	0.1660
275.2710	0.2181
275.5250	0.1711
275.7790	0.1295
276.0340	0.1193
276.2880	0.0977
276.5420	0.2806
276.7970	0.3265
277.0510	0.2817
277.3050	0.3864
277.5600	0.2211
277.8140	0.1672
278.0680	0.3112
278.3230	0.1574
278.5770	0.1697
278.8320	0.4353
279.0860	0.4243
279.3400	0.4264
279.5950	0.2773
279.8490	0.2830
280.1030	0.2307
280.3580	0.2288
280.6120	0.2332
280.8660	0.2185
281.1210	0.2387
281.3750	0.0973
281.6290	0.0505
281.8840	0.2651
282.1380	0.5157
282.3930	0.3571
282.6470	0.2456
282.9010	0.2726
283.1560	0.1828
283.4100	0.2777
283.6640	0.1924
283.9190	0.1878
284.1730	0.1450
284.4270	0.1645
284.6820	0.1474
284.9360	0.2199
285.1910	0.2589
285.4450	0.2575
285.6990	0.1764
285.9540	0.0969
286.2080	0.2378
286.4620	0.3083
286.7170	0.1747
286.9710	0.3832
287.2250	0.4998
287.4800	0.1703
287.7340	0.0004
287.9880	0.2351
288.2430	0.4388
288.4970	0.1769
288.7520	0.1030
289.0060	0.3673
289.2600	0.2182
289.5150	0.1347
289.7690	0.1261
290.0230	0.2433
290.2780	0.3106
290.5320	0.2839
290.7860	0.1883
291.0410	0.3395
291.2950	0.3755
291.5490	0.1582
291.8040	0.1582
292.0580	0.2486
292.3130	0.1917
292.5670	0.1649
292.8210	0.1463
293.0760	0.2696
293.3300	0.3784
293.5840	0.4594
293.8390	0.2159
294.0930	0.1087
294.3470	0.1753
294.6020	0.2272
294.8560	0.2017
295.1110	0.1110
295.3650	0.1243
295.6190	0.2193
295.8740	0.1916
296.1280	0.2294
296.3820	0.3717
296.6370	0.3629
296.8910	0.1848
297.1450	0.2482
297.4000	0.5151
297.6540	0.4036
297.9080	0.1920
298.1630	0.1687
298.4170	0.1540
298.6720	0.0675
298.9260	0.1384
299.1800	0.2159
299.4350	0.2555
299.6890	0.1399
299.9430	0.2139
300.1980	0.3105
300.4520	0.3898
300.7060	0.3299
300.9610	0.3852
301.2150	0.2799
301.4690	0.3665
301.7240	0.2605
301.9780	0.2547
302.2330	0.3228
302.4870	0.4289
302.7410	0.4188
302.9960	0.2210
303.2500	0.3121
303.5040	0.4873
303.7590	0.3106
304.0130	0.3244
304.2670	0.5187
304.5220	0.3649
304.7760	0.2194
305.0310	0.1630
305.2850	0.1552
305.5390	0.2193
305.7940	0.1270
306.0480	0.0858
306.3020	0.4040
306.5570	0.3245
306.8110	0.2676
307.0650	0.2816
307.3200	0.3478
307.5740	0.2533
307.8280	0.1310
308.0830	0.1628
308.3370	0.1662
308.5920	0.2326
308.8460	0.3508
309.1000	0.2604
309.3550	0.4506
309.6090	0.4638
309.8630	0.2547
310.1180	0.0845
310.3720	0.2111
310.6260	0.2687
310.8810	0.1781
311.1350	0.1963
311.3890	0.3083
311.6440	0.2734
311.8980	0.1549
312.1530	0.2746
312.4070	0.4182
312.6610	0.4074
312.9160	0.2292
313.1700	0.0836
313.4290	0.2683
313.6880	0.3783
313.9470	0.2721
314.2060	0.1270
314.4650	0.2278
314.7240	0.2853
314.9830	0.3340
315.2420	0.2240
315.5010	0.2273
315.7600	0.2429
316.0190	0.3458
316.2780	0.2752
316.5360	0.1882
316.7950	0.2632
317.0540	0.3183
317.3130	0.5924
317.5720	0.4413
317.8310	0.3402
318.0900	0.1993
318.3490	0.1785
318.6080	0.4590
318.8670	0.3793
319.1260	0.4023
319.3850	0.2845
319.6440	0.4448
319.9030	0.3975
320.1620	0.2167
320.4210	0.1661
320.6800	0.1829
320.9390	0.3858
321.1980	0.2417
321.4570	0.2084
321.7160	0.2573
321.9750	0.3881
322.2340	0.4308
322.4930	0.4038
322.7520	0.4970
323.0100	0.5032
323.2690	0.4636
323.5280	0.3780
323.7870	0.3265
324.0460	0.2637
324.3050	0.3308
324.5640	0.2250
324.8230	0.2670
325.0820	0.3206
325.3410	0.3492
325.6000	0.2501
325.8590	0.1677
326.1180	0.2759
326.3770	0.3049
326.6360	0.3479
326.8950	0.5780
327.1540	0.5358
327.4130	0.2340
327.6720	0.2883
327.9310	0.5300
328.1900	0.5918
328.4490	0.5264
328.7080	0.3164
328.9670	0.2830
329.2260	0.3083
329.4850	0.4054
329.7430	0.5290
330.0020	0.5955
330.2610	0.4451
330.5200	0.3764
330.7790	0.3747
331.0380	0.3806
331.2970	0.2629
331.5560	0.1325
331.8150	0.1349
332.0740	0.2094
332.3330	0.2803
332.5920	0.3031
332.8510	0.2346
333.1100	0.2366
333.3690	0.2164
333.6280	0.1641
333.8870	0.3999
334.1460	0.4360
334.4050	0.5178
334.6640	0.4710
334.9230	0.2674
335.1820	0.2937
335.4410	0.3443
335.7000	0.3880
335.9590	0.3351
336.2170	0.2497
336.4760	0.3141
336.7350	0.3888
336.9940	0.3250
337.2530	0.4390
337.5120	0.3681
337.7710	0.3475
338.0300	0.4057
338.2890	0.4982
338.5480	0.3290
338.8070	0.2883
339.0660	0.3721
339.3250	0.2755
339.5840	0.2958
339.8430	0.3261
340.1020	0.3016
340.3610	0.3281
340.6200	0.3956
340.8790	0.4305
341.1380	0.3963
341.3970	0.3137
341.6560	0.2757
341.9150	0.2384
342.1740	0.3877
342.4330	0.3611
342.6910	0.3201
342.9500	0.3097
343.2090	0.1988
343.4680	0.3828
343.7270	0.3367
343.9860	0.2374
344.2450	0.2119
344.5040	0.3837
344.7630	0.4686
345.0220	0.2665
345.2810	0.1884
345.5400	0.2306
345.7990	0.2900
346.0580	0.3348
346.3170	0.3068
346.5760	0.4416
346.8350	0.3644
347.0940	0.2111
347.3530	0.2156
347.6120	0.2439
347.8710	0.3838
348.1300	0.3989
348.3890	0.3089
348.6480	0.3736
348.9070	0.3345
349.1660	0.2125
349.4240	0.2121
349.6830	0.2866
349.9420	0.4344
350.2010	0.3938
350.4600	0.3865
350.7190	0.4352
350.9780	0.3689
351.2370	0.2583
351.4960	0.1858
351.7550	0.3176
352.0140	0.3964
352.2730	0.2656
352.5320	0.2707
352.7910	0.4401
353.0500	0.3389
353.3090	0.1938
353.5680	0.1922
353.8270	0.3075
354.0860	0.4088
354.3450	0.4549
354.6040	0.3157
354.8630	0.3750
355.1220	0.4047
355.3810	0.4149
355.6400	0.3386
355.8980	0.6199
356.1570	0.6663
356.4160	0.4390
356.6750	0.5161
356.9340	0.5008
357.1930	0.4770
357.4520	0.4678
357.7110	0.4358
357.9700	0.4772
358.2290	0.4125
358.4880	0.4549
358.7470	0.2732
359.0060	0.3446
359.2650	0.4966
359.5240	0.3115
359.7830	0.2891
360.0420	0.3043
360.3010	0.5256
360.5600	0.3901
360.8190	0.3426
361.0780	0.3086
361.3370	0.3818
361.5960	0.4181
361.8550	0.3160
362.1140	0.4343
362.3720	0.5105
362.6310	0.3134
362.8900	0.3512
363.1490	0.4108
363.4080	0.5653
363.6670	0.4704
363.9260	0.3477
364.1850	0.3597
364.4440	0.3750
364.7030	0.2880
364.9620	0.4150
365.2210	0.6419
365.4800	0.5371
365.7390	0.5289
365.9990	0.5214
366.2580	0.4304
366.5180	0.4067
366.7770	0.3273
367.0370	0.5283
367.2960	0.4689
367.5560	0.4762
367.8150	0.5055
368.0750	0.5061
368.3340	0.4700
368.5940	0.4551
368.8530	0.5394
369.1130	0.4471
369.3720	0.3783
369.6320	0.5633
369.8910	0.5195
370.1500	0.3687
370.4100	0.5263
370.6690	0.6145
370.9290	0.3739
371.1880	0.3410
371.4480	0.4731
371.7070	0.6558
371.9670	0.4733
372.2260	0.4071
372.4860	0.7389
372.7450	0.6640
373.0050	0.6270
373.2640	0.4116
373.5240	0.4409
373.7830	0.4325
374.0430	0.6251
374.3020	0.5314
374.5610	0.6361
374.8210	0.5216
375.0800	0.4924
375.3400	0.6634
375.5990	0.6263
375.8590	0.6500
376.1180	0.5188
376.3780	0.4442
376.6370	0.6480
376.8970	0.6495
377.1560	0.4763
377.4160	0.4687
377.6750	0.4407
377.9350	0.5658
378.1940	0.6362
378.4540	0.6300
378.7130	0.6720
378.9720	0.6130
379.2320	0.5452
379.4910	0.5467
379.7510	0.5706
380.0100	0.6407
380.2700	0.5261
380.5290	0.4822
380.7890	0.6345
381.0480	0.6510
381.3080	0.5621
381.5670	0.5241
381.8270	0.5580
382.0860	0.4651
382.3460	0.4961
382.6050	0.4354
382.8650	0.5519
383.1240	0.6940
383.3830	0.6269
383.6430	0.7640
383.9020	0.7176
384.1620	0.5883
384.4210	0.4354
384.6810	0.7409
384.9400	0.9790
385.2000	0.8053
385.4590	0.6800
385.7190	0.5666
385.9780	0.5042
386.2380	0.6331
386.4970	0.5901
386.7570	0.4414
387.0160	0.6798
387.2760	0.8068
387.5350	0.7012
387.7940	0.7222
388.0540	0.6788
388.3130	0.7406
388.5730	0.5810
388.8320	0.5681
389.0920	0.6110
389.3510	0.6201
389.6110	0.6373
389.8700	0.6974
390.1300	0.8500
390.3890	0.8487
390.6490	0.6264
390.9080	0.4680
391.1680	0.6446
391.4270	0.8672
391.6860	0.8723
391.9460	0.6694
392.2050	0.9359
392.4650	0.9513
392.7240	0.6606
392.9840	0.7598
393.2430	0.8768
393.5030	0.8175
393.7620	0.7541
394.0220	0.6176
394.2810	0.5761
394.5410	0.6108
394.8000	0.6802
395.0600	0.6575
395.3190	0.7339
395.5790	0.6348
395.8380	0.5550
396.0970	0.6791
396.3570	0.9288
396.6160	0.7453
396.8760	0.6112
397.1350	0.5700
397.3950	0.5250
397.6540	0.6471
397.9140	1.0460
398.1730	0.9476
398.4330	0.8708
398.6920	0.8656
398.9520	0.8361
399.2110	0.6803
399.4710	0.8369
399.7300	0.7544
399.9900	0.7757
400.2490	0.7066
400.5080	0.6450
400.7680	0.6310
401.0270	0.6538
401.2870	0.7868
401.5460	0.7700
401.8060	0.7874
402.0650	1.0574
402.3250	0.8366
402.5840	0.9804
402.8440	0.8328
403.1030	0.6766
403.3630	1.0463
403.6220	0.8310
403.8820	0.7302
404.1410	0.7690
404.4010	1.0596
404.6600	0.9090
404.9260	0.7308
405.1930	0.7488
405.4590	0.7467
405.7260	0.6358
405.9920	0.5867
406.2590	0.6462
406.5250	0.6181
406.7920	0.7952
407.0580	0.7860
407.3250	0.6029
407.5910	0.6996
407.8580	0.8181
408.1240	0.8669
408.3910	0.6875
408.6570	0.6343
408.9240	0.7078
409.1900	0.7787
409.4570	0.9549
409.7230	0.8180
409.9900	0.8452
410.2560	0.9830
410.5230	0.7221
410.7890	0.6539
411.0560	0.7605
411.3220	0.7018
411.5890	0.5944
411.8550	0.7610
412.1220	0.8078
412.3880	0.7347
412.6550	0.6128
412.9210	0.5839
413.1880	0.8076
413.4540	1.0531
413.7210	0.7182
413.9870	0.6740
414.2540	0.7819
414.5200	0.7395
414.7870	0.6042
415.0530	0.7469
415.3200	0.8338
415.5860	0.8357
415.8530	0.7605
416.1190	0.7146
416.3860	0.7615
416.6520	0.6683
416.9190	0.7175
417.1850	0.6240
417.4520	0.8091
417.7180	1.0022
417.9850	0.7652
418.2510	0.6581
418.5180	0.7645
418.7840	0.6788
419.0510	0.6733
419.3170	0.7047
419.5840	0.7678
419.8500	0.7903
420.1170	0.7271
420.3830	0.6155
420.6500	0.6267
420.9160	0.7404
421.1830	0.6147
421.4490	0.6937
421.7160	0.7911
421.9820	0.8587
422.2490	0.7531
422.5150	0.8731
422.7820	0.8958
423.0480	0.8664
423.3150	0.9516
423.5810	0.8452
423.8480	1.0106
424.1140	1.0604
424.3810	0.7664
424.6470	0.8195
424.9140	0.9086
425.1800	0.8193
425.4470	0.7995
425.7130	0.8788
425.9800	1.0831
426.2460	1.1793
426.5130	0.8691
426.7790	0.6057
427.0460	0.6719
427.3120	0.8610
427.5790	0.6716
427.8450	0.6865
428.1120	0.8027
428.3780	0.8992
428.6450	1.2964
428.9110	0.8685
429.1780	0.7467
429.4440	1.0888
429.7110	0.9074
429.9770	0.6092
430.2440	0.7726
430.5100	0.8222
430.7770	0.8268
431.0430	0.8824
431.3100	0.8559
431.5760	0.7638
431.8430	0.9517
432.1090	0.8488
432.3760	0.7338
432.6420	0.8860
432.9090	0.7998
433.1750	0.6716
433.4420	0.6788
433.7080	1.0198
433.9750	1.1810
434.2410	0.9479
434.5080	0.9027
434.7740	0.8274
435.0410	0.8423
435.3070	0.7101
435.5740	0.7945
435.8400	0.8912
436.1100	1.0523
436.3790	0.9412
436.6490	0.9010
436.9180	0.9422
437.1880	1.0145
437.4570	0.8872
437.7270	0.7273
437.9960	0.7901
438.2660	0.6952
438.5350	0.7546
438.8050	0.9107
439.0740	0.8976
439.3440	0.8458
439.6130	0.8756
439.8830	0.6984
440.1520	0.7610
440.4220	0.8526
440.6910	0.8480
440.9610	0.7945
441.2300	0.7583
441.5000	0.8019
441.7690	0.7268
442.0390	0.6584
442.3080	0.7153
442.5780	0.8815
442.8470	0.8248
443.1170	0.9540
443.3860	0.7906
443.6560	0.7122
443.9250	0.6589
444.1950	0.9559
444.4640	0.9484
444.7340	0.7339
445.0030	0.6476
445.2730	0.7657
445.5420	0.9147
445.8120	0.8219
446.0810	0.8854
446.3510	1.0365
446.6200	0.8925
446.8900	0.7707
447.1590	0.6955
447.4290	0.8199
447.6980	0.9916
447.9680	0.7868
448.2380	0.8297
448.5070	0.8841
448.7770	0.8217
449.0460	0.7527
449.3160	0.8556
449.5850	0.9047
449.8550	0.8952
450.1240	0.8752
450.3940	0.8044
450.6630	0.8012
450.9330	0.8130
451.2020	0.7236
451.4720	0.7817
451.7410	0.9299
452.0110	0.8125
452.2800	0.6295
452.5500	0.6958
452.8190	0.7169
453.0890	0.8656
453.3580	0.7906
453.6280	0.7196
453.8970	0.7639
454.1670	0.8581
454.4360	0.7986
454.7060	0.7193
454.9750	0.7051
455.2450	0.7705
455.5140	0.8254
455.7840	0.6382
456.0530	0.7412
456.3230	0.7101
456.5920	0.6562
456.8620	0.8946
457.1310	0.9272
457.4010	0.8331
457.6700	0.6438
457.9400	0.7758
458.2090	0.7202
458.4790	0.7104
458.7480	0.7054
459.0180	0.5579
459.2870	0.6884
459.5570	0.7619
459.8260	1.0968
460.0960	1.3108
460.3660	1.1240
460.6350	0.8699
460.9050	0.8822
461.1740	0.6618
461.4440	0.6829
461.7130	0.7367
461.9830	0.6191
462.2520	0.5295
462.5220	0.6933
462.7910	0.6963
463.0610	0.6020
463.3300	0.8616
463.6000	0.8936
463.8690	0.7921
464.1390	0.5928
464.4080	0.5358
464.6780	0.6256
464.9470	0.7031
465.2170	0.7320
465.4860	0.7270
465.7560	0.7007
466.0250	0.8210
466.2950	0.7011
466.5640	0.7415
466.8340	0.8369
467.1030	1.0187
467.3730	0.7534
467.6420	0.6203
467.9120	0.6349
468.1810	0.6909
468.4510	0.5850
468.7200	0.6225
468.9900	0.6918
469.2590	0.9305
469.5290	0.9216
469.7980	0.6389
470.0680	0.6261
470.3370	0.6983
470.6070	0.5762
470.8760	0.6187
471.1460	0.8241
471.4150	0.8592
471.6850	0.7022
471.9540	0.6825
472.2240	0.6894
472.4930	0.6852
472.7630	0.6964
473.0330	0.8375
473.3020	1.0469
473.5720	0.7657
473.8410	0.5192
474.1110	0.6040
474.3800	0.6160
474.6500	0.6481
474.9190	0.6948
475.1890	0.5698
475.4580	0.7485
475.7280	0.7595
475.9970	0.8997
476.2670	0.7695
476.5360	0.6814
476.8060	0.7420
477.0750	0.5909
477.3450	0.7113
477.6140	0.6820
477.8840	0.9004
478.1530	0.7314
478.4230	0.5703
478.6920	0.8017
478.9620	0.7341
479.2310	0.7357
479.5010	0.6706
479.7700	0.7426
480.0400	0.8620
480.3090	0.6223
480.5790	0.4885
480.8480	0.5219
481.1180	0.8216
481.3870	0.7253
481.6570	0.7201
481.9260	0.6639
482.1960	0.6058
482.4650	0.5369
482.7350	0.5970
483.0040	0.6824
483.2740	0.6415
483.5430	0.6280
483.8130	0.4809
484.0820	0.5599
484.3520	0.6623
484.6210	0.5401
484.8910	0.5132
485.1610	0.5805
485.4300	0.8575
485.7000	0.6174
485.9690	0.5325
486.2390	0.5995
486.5080	0.7359
486.7780	0.6748
487.0470	0.5662
487.3170	0.5251
487.5860	0.5952
487.8560	0.5419
488.1250	0.5804
488.3950	0.5035
488.6640	0.5683
488.9340	0.6756
489.2030	0.5479
489.4730	0.4876
489.7420	0.5652
490.0120	0.4904
490.2810	0.4541
490.5510	0.5631
490.8200	0.6669
491.0900	0.7482
491.3590	0.6588
491.6290	0.5727
491.8980	0.6875
492.1680	0.6640
492.4370	0.4862
492.7070	0.4861
492.9760	0.7820
493.2460	0.5679
493.5150	0.5342
493.7850	0.6921
494.0540	0.7804
494.3240	0.6823
494.5930	0.4563
494.8630	0.4373
495.1320	0.5821
495.4020	0.7882
495.6710	0.6164
495.9410	0.5222
496.2100	0.6789
496.4800	0.6279
496.7490	0.6799
497.0190	0.6260
497.2890	0.6351
497.5580	0.5244
497.8280	0.5463
498.0970	0.5709
498.3670	0.6944
498.6360	0.6685
498.9060	0.4930
499.1750	0.4589
499.4450	0.5597
499.7140	0.4871
499.9840	0.4411
500.2530	0.4428
500.5230	0.5575
500.7920	0.5293
501.0620	0.4978
501.3310	0.6631
501.6010	0.6727
501.8700	0.6281
502.1400	0.5652
502.4090	0.4904
502.6790	0.4904
502.9480	0.5466
503.2180	0.5705
503.4870	0.8415
503.7570	0.6051
504.0260	0.5090
504.2960	0.5398
504.5650	0.6510
504.8350	0.5886
505.1040	0.5249
505.3740	0.6658
505.6430	0.5484
505.9130	0.8236
506.1820	0.7679
506.4520	0.5699
506.7210	0.8776
506.9910	0.8291
507.2600	0.5038
507.5300	0.5291
507.7990	0.4991
508.0690	0.4600
508.3380	0.6186
508.6080	0.5543
508.8770	0.5819
509.1470	0.6672
509.4160	0.5954
509.6860	0.4367
509.9560	0.6608
510.2250	0.7366
510.4950	0.5090
510.7640	0.4419
511.0340	0.5533
511.3030	0.6089
511.5730	0.5099
511.8420	0.3909
512.1120	0.5588
512.3810	0.6131
512.6510	0.4636
512.9200	0.3984
513.1900	0.5122
513.4590	0.4545
513.7290	0.4492
513.9980	0.5892
514.2680	0.6428
514.5370	1.1707
514.8070	0.9413
515.0760	0.5697
515.3460	0.5113
515.6150	0.4185
515.8850	0.5832
516.1540	0.6549
516.4240	0.5642
516.6930	0.5438
516.9630	0.4536
517.2320	0.4894
517.5020	0.4771
517.7710	0.6452
518.0410	0.6202
518.3100	0.5411
518.5800	0.4776
518.8490	0.6465
519.1190	0.5416
519.3880	0.4794
519.6580	0.6198
519.9270	0.5019
520.1970	0.3604
520.4660	0.3578
520.7360	0.4198
521.0050	0.5127
521.2750	0.4460
521.5440	0.5452
521.8140	0.4198
522.0840	0.4884
522.3530	0.5515
522.6230	0.3610
522.8920	0.4133
523.1620	0.5277
523.4310	0.5827
523.7010	0.5116
523.9700	0.4544
524.2400	0.3835
524.5090	0.4235
524.7790	0.3445
525.0480	0.2876
525.3180	0.4851
525.5870	0.3715
525.8570	0.3203
526.1260	0.5658
526.3960	0.5438
526.6650	0.4108
526.9350	0.3717
527.2040	0.3740
527.4740	0.4447
527.7430	0.5250
528.0130	0.4033
528.2820	0.3543
528.5520	0.4131
528.8210	0.4597
529.0910	0.4813
529.3600	0.4023
529.6300	0.4133
529.8990	0.4026
530.1690	0.4094
530.4380	0.5415
530.7080	0.6112
530.9770	0.5042
531.2470	0.4441
531.5160	0.6247
531.7860	0.5430
532.0550	0.3595
532.3250	0.3181
532.5940	0.4499
532.8640	0.5076
533.1330	0.4339
533.4030	0.3214
533.6720	0.3734
533.9420	0.5455
534.2120	0.3645
534.4810	0.2615
534.7510	0.3794
535.0200	0.7898
535.2900	0.4997
535.5590	0.2995
535.8290	0.4147
536.0980	0.5964
536.3680	0.5524
536.6370	0.4362
536.9070	0.5586
537.1760	0.5562
537.4460	0.5011
537.7150	0.4381
537.9850	0.4211
538.2540	0.4689
538.5240	0.4882
538.7930	0.5329
539.0630	0.4120
539.3320	0.4876
539.6020	0.5081
539.8710	0.4387
540.1410	0.4903
540.4100	0.5715
540.6800	0.4265
540.9490	0.4279
541.2190	0.4776
541.4880	0.6563
541.7580	0.6411
542.0270	0.4451
542.2970	0.3930
542.5660	0.4605
542.8360	0.3215
543.1050	0.3065
543.3750	0.3891
543.6440	0.3916
543.9140	0.3270
544.1830	0.3091
544.4530	0.4621
544.7220	0.4155
544.9920	0.2746
545.2610	0.3485
545.5310	0.4280
545.8000	0.4235
546.0700	0.3786
546.3460	0.3221
546.6220	0.3520
546.8970	0.3469
547.1730	0.4145
547.4490	0.3190
547.7250	0.4698
548.0010	0.4618
548.2760	0.4393
548.5520	0.3964
548.8280	0.3785
549.1040	0.4316
549.3800	0.4035
549.6550	0.4743
549.9310	0.5397
550.2070	0.6379
550.4830	0.4157
550.7590	0.3132
551.0340	0.3217
551.3100	0.4499
551.5860	0.3705
551.8620	0.4991
552.1380	0.4203
552.4130	0.3331
552.6890	0.2538
552.9650	0.2551
553.2410	0.2823
553.5170	0.3763
553.7930	0.3191
554.0680	0.3308
554.3440	0.3208
554.6200	0.4782
554.8960	0.3683
555.1720	0.2545
555.4470	0.3637
555.7230	0.3574
555.9990	0.2937
556.2750	0.3036
556.5510	0.4538
556.8260	0.3758
557.1020	0.2944
557.3780	0.4248
557.6540	0.4243
557.9300	0.3467
558.2050	0.3328
558.4810	0.2573
558.7570	0.3109
559.0330	0.3044
559.3090	0.4738
559.5840	0.4872
559.8600	0.4461
560.1360	0.3783
560.4120	0.3317
560.6880	0.3130
560.9630	0.3305
561.2390	0.7466
561.5150	0.4658
561.7910	0.2658
562.0670	0.3338
562.3420	0.4099
562.6180	0.3480
562.8940	0.1985
563.1700	0.4264
563.4460	0.3995
563.7210	0.2104
563.9970	0.2278
564.2730	0.3464
564.5490	0.4457
564.8250	0.4019
565.1000	0.6264
565.3760	0.4927
565.6520	0.3844
565.9280	0.4642
566.2040	0.3069
566.4790	0.3558
566.7550	0.3636
567.0310	0.3199
567.3070	0.2479
567.5830	0.4149
567.8580	0.3814
568.1340	0.3550
568.4100	0.2446
568.6860	0.3643
568.9620	0.3393
569.2370	0.5041
569.5130	0.3234
569.7890	0.3487
570.0650	0.3307
570.3410	0.2976
570.6170	0.2845
570.8920	0.3389
571.1680	0.3433
571.4440	0.3174
571.7200	0.3051
571.9960	0.4385
572.2710	0.6470
572.5470	0.4101
572.8230	0.2232
573.0990	0.3566
573.3750	0.6409
573.6500	0.4374
573.9260	0.2887
574.2020	0.3063
574.4780	0.3350
574.7540	0.2975
575.0290	0.2886
575.3050	0.4529
575.5810	0.3612
575.8570	0.2643
576.1330	0.2333
576.4080	0.3154
576.6840	0.4148
576.9600	0.3779
577.2390	0.2810
577.5170	0.2597
577.7960	0.3486
578.0750	0.4682
578.3540	0.2933
578.6320	0.2405
578.9110	0.4401
579.1900	0.5888
579.4690	0.4359
579.7470	0.3608
580.0260	0.3640
580.3050	0.2782
580.5840	0.3898
580.8620	0.3291
581.1410	0.3691
581.4200	0.3461
581.6990	0.3053
581.9770	0.3993
582.2560	0.3744
582.5350	0.4530
582.8140	0.3760
583.0920	0.3916
583.3710	0.3799
583.6500	0.3618
583.9290	0.3410
584.2070	0.2897
584.4860	0.3962
584.7650	0.4301
585.0430	0.2546
585.3220	0.4375
585.6010	0.4795
585.8800	0.6154
586.1580	0.3929
586.4370	0.2466
586.7160	0.3223
586.9950	0.3732
587.2730	0.3010
587.5520	0.3120
587.8310	0.3896
588.1100	0.4265
588.3880	0.2564
588.6670	0.2038
588.9460	0.2206
589.2250	0.1576
589.5030	0.1550
589.7820	0.2055
590.0610	0.2484
590.3400	0.3701
590.6180	0.5554
590.8970	0.6816
591.1760	0.4788
591.4550	0.3071
591.7330	0.2985
592.0120	0.3938
592.2910	0.5202
592.5700	0.3543
592.8480	0.4444
593.1270	0.3294
593.4060	0.3173
593.6840	0.2340
593.9630	0.2617
594.2420	0.3430
594.5210	0.2986
594.7990	0.3295
595.0780	0.3166
595.3570	0.2805
595.6360	0.2749
595.9140	0.3042
596.1930	0.2535
596.4720	0.2741
596.7510	0.3397
597.0290	0.3695
597.3080	0.3628
597.5870	0.2676
597.8660	0.2864
598.1440	0.2166
598.4230	0.1848
598.7020	0.2960
598.9810	0.3519
599.2590	0.4495
599.5380	0.3674
599.8170	0.2608
