199.8780	-0.0234
200.1320	-0.0194
200.3850	-0.0195
200.6390	-0.0155
200.8920	-0.0143
201.1460	-0.0356
201.4000	-0.0579
201.6530	-0.0304
201.9070	-0.0328
202.1610	-0.0148
202.4140	-0.0396
202.6680	-0.0745
202.9220	-0.0474
203.1750	-0.0250
203.4290	0.0034
203.6830	-0.0572
203.9360	-0.0684
204.1900	-0.0619
204.4430	-0.0639
204.6970	-0.0646
204.9510	-0.0311
205.2040	-0.0303
205.4580	-0.0215
205.7120	-0.0248
205.9650	-0.0293
206.2190	-0.0127
206.4730	0.0053
206.7260	-0.0293
206.9800	-0.0462
207.2330	-0.0276
207.4870	-0.0259
207.7410	-0.0443
207.9940	-0.0685
208.2480	-0.0379
208.5020	-0.0247
208.7550	-0.0799
209.0090	-0.1041
209.2630	-0.1070
209.5160	-0.0660
209.7700	-0.0078
210.0240	-0.0408
210.2770	-0.0634
210.5310	-0.0331
210.7840	-0.0218
211.0380	-0.0093
211.2920	0.0001
211.5450	-0.0291
211.7990	-0.0460
212.0530	-0.0610
212.3060	-0.0541
212.5600	-0.0270
212.8140	-0.0147
213.0670	-0.0301
213.3210	-0.0501
213.5750	-0.0489
213.8280	-0.0516
214.0820	-0.0463
214.3350	-0.0372
214.5890	-0.0665
214.8430	-0.0488
215.0960	-0.0366
215.3500	-0.0161
215.6040	-0.0216
215.8570	-0.0226
216.1110	-0.0532
216.3650	-0.0305
216.6180	-0.0391
216.8720	-0.0452
217.1260	-0.0175
217.3790	-0.0423
217.6330	-0.0398
217.8860	-0.0254
218.1400	-0.0249
218.3940	-0.0224
218.6470	-0.0422
218.9010	-0.0521
219.1550	-0.0525
219.4080	-0.0368
219.6620	-0.0081
219.9160	-0.0189
220.1690	-0.0520
220.4230	-0.0663
220.6770	-0.0670
220.9300	-0.0133
221.1840	-0.0090
221.4370	-0.0126
221.6910	-0.0263
221.9450	-0.0220
222.1980	-0.0461
222.4520	-0.0443
222.7060	-0.0220
222.9590	-0.0293
223.2130	-0.0633
223.4670	-0.0466
223.7200	-0.0220
223.9740	-0.0462
224.2280	-0.0412
224.4810	-0.0357
224.7350	-0.0529
224.9880	-0.0514
225.2420	-0.0331
225.4960	-0.0395
225.7490	-0.1109
226.0030	-0.0825
226.2570	-0.0246
226.5100	-0.0311
226.7640	-0.0518
227.0180	-0.0218
227.2710	-0.0434
227.5250	-0.0429
227.7790	-0.0287
228.0320	-0.0580
228.2860	-0.0346
228.5390	-0.0338
228.7930	-0.0402
229.0470	-0.0501
229.3000	-0.0594
229.5540	-0.0719
229.8080	-0.0476
230.0610	-0.0474
230.3150	-0.0592
230.5690	-0.0143
230.8220	-0.0188
231.0760	-0.0623
231.3300	-0.0498
231.5830	-0.0644
231.8370	-0.0477
232.0900	-0.0402
232.3440	-0.0403
232.5980	-0.0262
232.8510	-0.0339
233.1050	-0.0267
233.3590	-0.0319
233.6120	-0.0383
233.8660	-0.0352
234.1200	-0.0195
234.3730	-0.0205
234.6270	-0.0488
234.8800	0.0068
235.1340	-0.0208
235.3880	-0.0383
235.6410	-0.0394
235.8950	-0.0420
236.1490	-0.0402
236.4020	-0.0488
236.6560	-0.0211
236.9100	-0.0076
237.1630	-0.0523
237.4170	-0.0125
237.6710	0.0099
237.9240	-0.0387
238.1780	-0.0574
238.4310	-0.0395
238.6850	-0.0310
238.9390	-0.0251
239.1920	-0.0052
239.4460	-0.0342
239.7000	-0.0399
239.9530	-0.0172
240.2070	-0.0047
240.4610	-0.0111
240.7140	-0.0349
240.9680	-0.0562
241.2220	-0.0487
241.4750	-0.0092
241.7290	-0.0116
241.9820	-0.0265
242.2360	-0.0646
242.4900	-0.0321
242.7430	-0.0012
242.9970	-0.0237
243.2510	-0.0194
243.5040	-0.0461
243.7580	-0.0227
244.0120	-0.0387
244.2650	-0.0590
244.5190	-0.0677
244.7730	-0.0541
245.0260	-0.0631
245.2800	-0.0619
245.5330	-0.0373
245.7870	-0.0206
246.0410	-0.0511
246.2940	-0.0474
246.5480	-0.0313
246.8020	-0.0669
247.0550	-0.0705
247.3090	-0.0905
247.5630	-0.0475
247.8160	-0.0353
248.0700	-0.0721
248.3240	-0.0510
248.5770	-0.0029
248.8310	-0.0271
249.0840	-0.0525
249.3380	-0.0405
249.5920	-0.0280
249.8450	-0.0280
250.0990	-0.0655
250.3530	-0.0520
250.6060	-0.0663
250.8600	-0.0281
251.1140	-0.0079
251.3670	-0.0501
251.6210	-0.0571
251.8750	-0.0262
252.1280	-0.0196
252.3820	-0.0397
252.6350	-0.0553
252.8890	-0.0395
253.1430	-0.0393
253.3960	-0.0552
253.6500	-0.0312
253.9040	-0.0294
254.1590	-0.0118
254.4130	-0.0226
254.6670	-0.0506
254.9220	-0.0624
255.1760	-0.0802
255.4310	-0.0416
255.6850	-0.0227
255.9390	-0.0203
256.1940	0.0113
256.4480	-0.0024
256.7020	-0.0132
256.9570	-0.0301
257.2110	-0.0254
257.4650	-0.0401
257.7200	-0.0740
257.9740	-0.0634
258.2280	-0.0394
258.4830	-0.0217
258.7370	-0.0215
258.9920	-0.0402
259.2460	-0.0410
259.5000	-0.0401
259.7550	-0.0446
260.0090	-0.0390
260.2630	-0.0356
260.5180	-0.0591
260.7720	-0.0630
261.0260	-0.0380
261.2810	-0.0410
261.5350	-0.0334
261.7890	-0.0516
262.0440	-0.0279
262.2980	-0.0391
262.5530	-0.0258
262.8070	-0.0057
263.0610	-0.0352
263.3160	-0.0514
263.5700	-0.0195
263.8240	0.0073
264.0790	-0.0323
264.3330	-0.0435
264.5870	0.0023
264.8420	-0.0278
265.0960	-0.0409
265.3510	-0.0587
265.6050	-0.0470
265.8590	-0.0408
266.1140	-0.0310
266.3680	-0.0454
266.6220	-0.0489
266.8770	-0.0284
267.1310	-0.0307
267.3850	-0.0618
267.6400	-0.0492
267.8940	-0.0354
268.1480	-0.0301
268.4030	-0.0536
268.6570	-0.0318
268.9120	-0.0075
269.1660	-0.0057
269.4200	0.0130
269.6750	-0.0416
269.9290	-0.0337
270.1830	-0.0436
270.4380	-0.0554
270.6920	-0.0498
270.9460	-0.0081
271.2010	-0.0202
271.4550	-0.0130
271.7090	-0.0162
271.9640	-0.0346
272.2180	-0.0296
272.4730	-0.0015
272.7270	-0.0374
272.9810	-0.0302
273.2360	-0.0274
273.4900	-0.0423
273.7440	-0.0408
273.9990	-0.0704
274.2530	-0.0432
274.5070	-0.0293
274.7620	-0.0395
275.0160	-0.0355
275.2710	-0.0587
275.5250	-0.0603
275.7790	-0.0313
276.0340	-0.0136
276.2880	0.0047
276.5420	-0.0419
276.7970	-0.0670
277.0510	-0.0623
277.3050	-0.0418
277.5600	-0.0146
277.8140	-0.0261
278.0680	-0.0677
278.3230	-0.0516
278.5770	-0.0687
278.8320	-0.0520
279.0860	-0.0619
279.3400	-0.0838
279.5950	-0.0614
279.8490	-0.0498
280.1030	-0.0473
280.3580	-0.0455
280.6120	-0.0338
280.8660	-0.0592
281.1210	-0.0539
281.3750	-0.0198
281.6290	0.0077
281.8840	-0.0623
282.1380	-0.0814
282.3930	-0.0783
282.6470	-0.0670
282.9010	-0.0832
283.1560	-0.0275
283.4100	-0.0605
283.6640	-0.0485
283.9190	-0.0100
284.1730	-0.0113
284.4270	-0.0471
284.6820	-0.0564
284.9360	-0.0511
285.1910	-0.0552
285.4450	-0.0594
285.6990	-0.0478
285.9540	-0.0336
286.2080	-0.0482
286.4620	-0.0546
286.7170	-0.0468
286.9710	-0.0715
287.2250	-0.0690
287.4800	-0.0096
287.7340	-0.0074
287.9880	-0.0410
288.2430	-0.0785
288.4970	-0.0507
288.7520	-0.0374
289.0060	-0.0783
289.2600	-0.0382
289.5150	-0.0151
289.7690	-0.0114
290.0230	-0.0365
290.2780	-0.0448
290.5320	-0.0613
290.7860	-0.0575
291.0410	-0.0687
291.2950	-0.0434
291.5490	-0.0229
291.8040	-0.0397
292.0580	-0.0515
292.3130	-0.0446
292.5670	-0.0557
292.8210	-0.0381
293.0760	-0.0372
293.3300	-0.0866
293.5840	-0.0645
293.8390	-0.0152
294.0930	-0.0105
294.3470	-0.0270
294.6020	-0.0138
294.8560	-0.0398
295.1110	0.0016
295.3650	-0.0124
295.6190	-0.0241
295.8740	-0.0673
296.1280	-0.0664
296.3820	-0.0496
296.6370	-0.0655
296.8910	-0.0542
297.1450	-0.0194
297.4000	-0.0185
297.6540	-0.0319
297.9080	-0.0379
298.1630	-0.0244
298.4170	0.0091
298.6720	0.0119
298.9260	-0.0021
299.1800	-0.0091
299.4350	-0.0209
299.6890	-0.0238
299.9430	-0.0029
300.1980	-0.0258
300.4520	-0.0284
300.7060	-0.0192
300.9610	-0.0440
301.2150	-0.0190
301.4690	-0.0251
301.7240	-0.0255
301.9780	0.0217
302.2330	0.0042
302.4870	0.0203
302.7410	0.0465
302.9960	0.0177
303.2500	0.0138
303.5040	0.0628
303.7590	0.0333
304.0130	0.0083
304.2670	0.0228
304.5220	0.0493
304.7760	0.0607
305.0310	0.0806
305.2850	0.0783
305.5390	0.0976
305.7940	0.0766
306.0480	0.0826
306.3020	0.0990
306.5570	0.1034
306.8110	0.1328
307.0650	0.1280
307.3200	0.1453
307.5740	0.1333
307.8280	0.1199
308.0830	0.1458
308.3370	0.1436
308.5920	0.1600
308.8460	0.2150
309.1000	0.2083
309.3550	0.1636
309.6090	0.1848
309.8630	0.1613
310.1180	0.1673
310.3720	0.2049
310.6260	0.2004
310.8810	0.1494
311.1350	0.2146
311.3890	0.2503
311.6440	0.2069
311.8980	0.1900
312.1530	0.2403
312.4070	0.2492
312.6610	0.2700
312.9160	0.2209
313.1700	0.2126
313.4290	0.2126
313.6880	0.2442
313.9470	0.2438
314.2060	0.1934
314.4650	0.2304
314.7240	0.2459
314.9830	0.2354
315.2420	0.2091
315.5010	0.2340
315.7600	0.2308
316.0190	0.2434
316.2780	0.2329
316.5360	0.2209
316.7950	0.2395
317.0540	0.2391
317.3130	0.2540
317.5720	0.2083
317.8310	0.2187
318.0900	0.2117
318.3490	0.2294
318.6080	0.2351
318.8670	0.2334
319.1260	0.2312
319.3850	0.1988
319.6440	0.2032
319.9030	0.2136
320.1620	0.1800
320.4210	0.1797
320.6800	0.1479
320.9390	0.1533
321.1980	0.1532
321.4570	0.1646
321.7160	0.1513
321.9750	0.1693
322.2340	0.1736
322.4930	0.1708
322.7520	0.1843
323.0100	0.1710
323.2690	0.1352
323.5280	0.1177
323.7870	0.1281
324.0460	0.1144
324.3050	0.0989
324.5640	0.1140
324.8230	0.1026
325.0820	0.0703
325.3410	0.0734
325.6000	0.0797
325.8590	0.0771
326.1180	0.0774
326.3770	0.0558
326.6360	0.0668
326.8950	0.0687
327.1540	0.0478
327.4130	0.0620
327.6720	0.0505
327.9310	0.0495
328.1900	0.0466
328.4490	0.0507
328.7080	0.0656
328.9670	0.0769
329.2260	0.0541
329.4850	0.0221
329.7430	0.0410
330.0020	0.0384
330.2610	0.0428
330.5200	0.0073
330.7790	-0.0120
331.0380	0.0044
331.2970	0.0354
331.5560	0.0287
331.8150	0.0363
332.0740	0.0511
332.3330	0.0495
332.5920	0.0323
332.8510	0.0434
333.1100	0.0370
333.3690	0.0357
333.6280	0.0214
333.8870	0.0049
334.1460	-0.0015
334.4050	-0.0126
334.6640	0.0105
334.9230	0.0329
335.1820	0.0320
335.4410	0.0427
335.7000	0.0145
335.9590	0.0056
336.2170	0.0239
336.4760	0.0175
336.7350	0.0042
336.9940	-0.0297
337.2530	0.0206
337.5120	0.0313
337.7710	0.0300
338.0300	-0.0046
338.2890	0.0074
338.5480	0.0185
338.8070	0.0086
339.0660	0.0133
339.3250	0.0187
339.5840	0.0342
339.8430	0.0120
340.1020	0.0199
340.3610	0.0277
340.6200	0.0176
340.8790	0.0049
341.1380	0.0435
341.3970	0.0314
341.6560	0.0222
341.9150	0.0225
342.1740	0.0227
342.4330	0.0186
342.6910	0.0192
342.9500	0.0353
343.2090	0.0004
343.4680	0.0210
343.7270	0.0254
343.9860	0.0294
344.2450	0.0164
344.5040	0.0367
344.7630	0.0278
345.0220	0.0246
345.2810	0.0369
345.5400	0.0169
345.7990	0.0010
346.0580	0.0054
346.3170	0.0127
346.5760	0.0123
346.8350	0.0082
347.0940	-0.0045
347.3530	0.0103
347.6120	0.0375
347.8710	0.0264
348.1300	0.0207
348.3890	0.0244
348.6480	0.0140
348.9070	0.0070
349.1660	0.0133
349.4240	0.0294
349.6830	0.0325
349.9420	0.0176
350.2010	0.0068
350.4600	-0.0179
350.7190	-0.0094
350.9780	0.0178
351.2370	0.0181
351.4960	0.0193
351.7550	0.0281
352.0140	0.0221
352.2730	0.0227
352.5320	0.0141
352.7910	0.0267
353.0500	0.0292
353.3090	0.0365
353.5680	0.0288
353.8270	0.0329
354.0860	0.0281
354.3450	0.0075
354.6040	0.0224
354.8630	0.0312
355.1220	0.0445
355.3810	0.0350
355.6400	0.0140
355.8980	0.0026
356.1570	-0.0247
356.4160	-0.0199
356.6750	-0.0190
356.9340	0.0094
357.1930	0.0379
357.4520	0.0201
357.7110	-0.0141
357.9700	-0.0011
358.2290	0.0305
358.4880	0.0235
358.7470	0.0247
359.0060	0.0149
359.2650	-0.0051
359.5240	0.0098
359.7830	0.0218
360.0420	0.0075
360.3010	0.0037
360.5600	-0.0081
360.8190	0.0058
361.0780	0.0064
361.3370	0.0127
361.5960	-0.0142
361.8550	-0.0067
362.1140	0.0025
362.3720	0.0022
362.6310	0.0094
362.8900	-0.0023
363.1490	-0.0068
363.4080	0.0144
363.6670	-0.0202
363.9260	-0.0009
364.1850	0.0330
364.4440	0.0279
364.7030	0.0206
364.9620	0.0066
365.2210	0.0009
365.4800	0.0040
365.7390	-0.0068
365.9990	-0.0214
366.2580	-0.0065
366.5180	0.0020
366.7770	0.0086
367.0370	-0.0034
367.2960	0.0089
367.5560	-0.0028
367.8150	0.0035
368.0750	0.0079
368.3340	0.0189
368.5940	-0.0093
368.8530	-0.0020
369.1130	0.0372
369.3720	0.0331
369.6320	0.0368
369.8910	0.0115
370.1500	0.0099
370.4100	0.0225
370.6690	0.0133
370.9290	0.0202
371.1880	-0.0020
371.4480	-0.0052
371.7070	-0.0223
371.9670	0.0014
372.2260	0.0299
372.4860	-0.0284
372.7450	-0.0186
373.0050	0.0042
373.2640	0.0238
373.5240	-0.0013
373.7830	0.0278
374.0430	-0.0048
374.3020	0.0025
374.5610	0.0088
374.8210	0.0205
375.0800	0.0014
375.3400	-0.0037
375.5990	0.0153
375.8590	-0.0262
376.1180	-0.0538
376.3780	-0.0297
376.6370	-0.0003
376.8970	-0.0070
377.1560	-0.0057
377.4160	0.0231
377.6750	0.0341
377.9350	-0.0194
378.1940	-0.0423
378.4540	-0.0131
378.7130	-0.0414
378.9720	-0.0322
379.2320	-0.0227
379.4910	-0.0123
379.7510	0.0007
380.0100	-0.0070
380.2700	-0.0288
380.5290	0.0041
380.7890	0.0044
381.0480	-0.0105
381.3080	-0.0058
381.5670	0.0071
381.8270	-0.0011
382.0860	0.0198
382.3460	-0.0113
382.6050	-0.0303
382.8650	-0.0025
383.1240	0.0083
383.3830	0.0022
383.6430	-0.0095
383.9020	-0.0339
384.1620	0.0015
384.4210	0.0047
384.6810	-0.0080
384.9400	-0.0226
385.2000	-0.0055
385.4590	0.0074
385.7190	-0.0015
385.9780	0.0023
386.2380	0.0023
386.4970	0.0045
386.7570	0.0206
387.0160	0.0225
387.2760	0.0285
387.5350	0.0186
387.7940	-0.0029
388.0540	0.0116
388.3130	-0.0093
388.5730	0.0119
388.8320	0.0233
389.0920	-0.0205
389.3510	0.0029
389.6110	0.0086
389.8700	0.0045
390.1300	-0.0133
390.3890	-0.0051
390.6490	0.0104
390.9080	0.0348
391.1680	0.0041
391.4270	-0.0080
391.6860	-0.0273
391.9460	0.0201
392.2050	0.0125
392.4650	-0.0179
392.7240	-0.0059
392.9840	-0.0265
393.2430	-0.0053
393.5030	0.0096
393.7620	0.0041
394.0220	-0.0171
394.2810	-0.0086
394.5410	0.0180
394.8000	0.0284
395.0600	0.0173
395.3190	0.0069
395.5790	0.0277
395.8380	0.0350
396.0970	-0.0087
396.3570	-0.0087
396.6160	0.0191
396.8760	-0.0056
397.1350	0.0029
397.3950	0.0238
397.6540	-0.0025
397.9140	-0.0060
398.1730	-0.0016
398.4330	0.0136
398.6920	-0.0191
398.9520	-0.0416
399.2110	-0.0007
399.4710	-0.0153
399.7300	-0.0049
399.9900	-0.0103
400.2490	0.0122
400.5080	0.0191
400.7680	-0.0085
401.0270	-0.0009
401.2870	0.0061
401.5460	0.0152
401.8060	0.0196
402.0650	-0.0367
402.3250	-0.0387
402.5840	-0.0475
402.8440	-0.0131
403.1030	0.0104
403.3630	-0.0302
403.6220	0.0192
403.8820	0.0426
404.1410	0.0214
404.4010	-0.0030
404.6600	0.0270
404.9260	-0.0024
405.1930	-0.0208
405.4590	-0.0085
405.7260	0.0254
405.9920	0.0510
406.2590	0.0127
406.5250	0.0310
406.7920	0.0145
407.0580	-0.0055
407.3250	0.0062
407.5910	-0.0289
407.8580	-0.0160
408.1240	0.0173
408.3910	0.0096
408.6570	0.0071
408.9240	-0.0179
409.1900	-0.0104
409.4570	-0.0262
409.7230	-0.0234
409.9900	-0.0009
410.2560	0.0044
410.5230	0.0022
410.7890	0.0139
411.0560	0.0332
411.3220	0.0269
411.5890	0.0303
411.8550	0.0161
412.1220	-0.0026
412.3880	0.0315
412.6550	0.0195
412.9210	0.0005
413.1880	0.0084
413.4540	-0.0173
413.7210	-0.0040
413.9870	0.0023
414.2540	-0.0034
414.5200	0.0146
414.7870	0.0386
415.0530	-0.0111
415.3200	-0.0212
415.5860	-0.0032
415.8530	-0.0099
416.1190	-0.0007
416.3860	0.0189
416.6520	0.0205
416.9190	-0.0008
417.1850	0.0014
417.4520	0.0068
417.7180	0.0258
417.9850	-0.0135
418.2510	-0.0344
418.5180	-0.0405
418.7840	0.0263
419.0510	0.0472
419.3170	0.0203
419.5840	0.0149
419.8500	0.0013
420.1170	0.0012
420.3830	0.0199
420.6500	0.0297
420.9160	0.0018
421.1830	0.0202
421.4490	0.0119
421.7160	0.0053
421.9820	0.0075
422.2490	-0.0090
422.5150	-0.0312
422.7820	-0.0338
423.0480	-0.0043
423.3150	0.0188
423.5810	0.0089
423.8480	-0.0098
424.1140	-0.0104
424.3810	-0.0145
424.6470	-0.0263
424.9140	-0.0177
425.1800	-0.0041
425.4470	-0.0320
425.7130	-0.0077
425.9800	0.0015
426.2460	-0.0311
426.5130	-0.0109
426.7790	0.0163
427.0460	-0.0017
427.3120	-0.0005
427.5790	-0.0056
427.8450	0.0017
428.1120	0.0245
428.3780	-0.0164
428.6450	-0.0196
428.9110	0.0172
429.1780	0.0076
429.4440	0.0095
429.7110	-0.0044
429.9770	0.0298
430.2440	0.0326
430.5100	0.0148
430.7770	0.0110
431.0430	0.0031
431.3100	0.0116
431.5760	0.0132
431.8430	-0.0419
432.1090	-0.0299
432.3760	0.0033
432.6420	0.0043
432.9090	0.0128
433.1750	0.0096
433.4420	0.0096
433.7080	-0.0284
433.9750	-0.0116
434.2410	-0.0098
434.5080	0.0004
434.7740	-0.0003
435.0410	-0.0206
435.3070	-0.0177
435.5740	-0.0212
435.8400	-0.0447
436.1100	-0.0159
436.3790	-0.0108
436.6490	-0.0033
436.9180	-0.0036
437.1880	-0.0131
437.4570	-0.0074
437.7270	-0.0182
437.9960	-0.0233
438.2660	0.0093
438.5350	-0.0008
438.8050	-0.0173
439.0740	-0.0094
439.3440	0.0020
439.6130	-0.0297
439.8830	-0.0170
440.1520	0.0130
440.4220	-0.0079
440.6910	-0.0120
440.9610	-0.0022
441.2300	0.0266
441.5000	-0.0057
441.7690	-0.0251
442.0390	-0.0159
442.3080	-0.0089
442.5780	-0.0299
442.8470	-0.0144
443.1170	0.0056
443.3860	0.0274
443.6560	0.0274
443.9250	0.0036
444.1950	-0.0363
444.4640	-0.0224
444.7340	-0.0126
445.0030	-0.0192
445.2730	-0.0050
445.5420	0.0061
445.8120	-0.0082
446.0810	-0.0288
446.3510	-0.0465
446.6200	-0.0361
446.8900	-0.0304
447.1590	-0.0127
447.4290	-0.0516
447.6980	-0.0393
447.9680	-0.0077
448.2380	-0.0143
448.5070	-0.0299
448.7770	-0.0403
449.0460	-0.0084
449.3160	0.0258
449.5850	-0.0163
449.8550	-0.0502
450.1240	-0.0296
450.3940	-0.0163
450.6630	-0.0182
450.9330	-0.0081
451.2020	0.0039
451.4720	-0.0009
451.7410	-0.0186
452.0110	-0.0262
452.2800	-0.0050
452.5500	-0.0206
452.8190	-0.0187
453.0890	-0.0127
453.3580	-0.0026
453.6280	-0.0102
453.8970	-0.0216
454.1670	-0.0191
454.4360	-0.0181
454.7060	-0.0390
454.9750	-0.0292
455.2450	-0.0368
455.5140	-0.0264
455.7840	-0.0039
456.0530	0.0071
456.3230	0.0071
456.5920	-0.0131
456.8620	-0.0024
457.1310	0.0039
457.4010	-0.0138
457.6700	-0.0081
457.9400	-0.0072
458.2090	-0.0021
458.4790	-0.0271
458.7480	-0.0028
459.0180	0.0044
459.2870	-0.0025
459.5570	-0.0259
459.8260	-0.0085
460.0960	-0.0470
460.3660	-0.0521
460.6350	-0.0244
460.9050	-0.0095
461.1740	0.0312
461.4440	0.0085
461.7130	0.0084
461.9830	0.0110
462.2520	0.0091
462.5220	-0.0017
462.7910	-0.0224
463.0610	0.0008
463.3300	-0.0202
463.6000	-0.0069
463.8690	0.0110
464.1390	0.0141
464.4080	0.0154
464.6780	-0.0038
464.9470	-0.0316
465.2170	-0.0358
465.4860	-0.0176
465.7560	-0.0006
466.0250	-0.0135
466.2950	0.0148
466.5640	-0.0019
466.8340	-0.0254
467.1030	-0.0007
467.3730	0.0003
467.6420	-0.0036
467.9120	-0.0136
468.1810	-0.0191
468.4510	0.0018
468.7200	-0.0130
468.9900	-0.0114
469.2590	-0.0192
469.5290	-0.0263
469.7980	0.0057
470.0680	0.0086
470.3370	-0.0057
470.6070	0.0244
470.8760	0.0076
471.1460	-0.0164
471.4150	-0.0177
471.6850	0.0027
471.9540	0.0001
472.2240	0.0162
472.4930	-0.0116
472.7630	-0.0100
473.0330	-0.0394
473.3020	-0.0413
473.5720	-0.0084
473.8410	0.0097
474.1110	-0.0126
474.3800	0.0077
474.6500	-0.0243
474.9190	-0.0243
475.1890	0.0064
475.4580	-0.0185
475.7280	-0.0365
475.9970	-0.0178
476.2670	-0.0185
476.5360	-0.0030
476.8060	-0.0040
477.0750	0.0153
477.3450	-0.0063
477.6140	-0.0233
477.8840	-0.0380
478.1530	-0.0156
478.4230	-0.0015
478.6920	-0.0127
478.9620	-0.0233
479.2310	-0.0018
479.5010	-0.0233
479.7700	-0.0393
480.0400	-0.0159
480.3090	-0.0089
480.5790	-0.0121
480.8480	0.0061
481.1180	-0.0296
481.3870	-0.0328
481.6570	-0.0022
481.9260	0.0225
482.1960	0.0133
482.4650	-0.0013
482.7350	0.0222
483.0040	0.0114
483.2740	0.0034
483.5430	0.0037
483.8130	0.0050
484.0820	-0.0125
484.3520	-0.0128
484.6210	-0.0175
484.8910	-0.0001
485.1610	0.0229
485.4300	-0.0330
485.7000	-0.0264
485.9690	-0.0197
486.2390	-0.0185
486.5080	-0.0201
486.7780	-0.0277
487.0470	0.0039
487.3170	0.0073
487.5860	-0.0151
487.8560	-0.0163
488.1250	-0.0138
488.3950	0.0114
488.6640	0.0259
488.9340	0.0233
489.2030	0.0148
489.4730	0.0126
489.7420	0.0041
490.0120	-0.0019
490.2810	-0.0086
490.5510	-0.0158
490.8200	0.0050
491.0900	0.0031
491.3590	-0.0203
491.6290	-0.0099
491.8980	-0.0219
492.1680	-0.0279
492.4370	0.0145
492.7070	-0.0112
492.9760	-0.0163
493.2460	-0.0027
493.5150	0.0262
493.7850	-0.0376
494.0540	-0.0542
494.3240	-0.0231
494.5930	-0.0018
494.8630	0.0071
495.1320	-0.0021
495.4020	-0.0139
495.6710	-0.0270
495.9410	-0.0172
496.2100	-0.0281
496.4800	-0.0374
496.7490	-0.0457
497.0190	-0.0083
497.2890	-0.0086
497.5580	0.0019
497.8280	0.0074
498.0970	-0.0093
498.3670	-0.0354
498.6360	-0.0048
498.9060	0.0006
499.1750	-0.0152
499.4450	-0.0258
499.7140	-0.0162
499.9840	0.0012
500.2530	0.0296
500.5230	0.0183
500.7920	0.0238
501.0620	0.0225
501.3310	-0.0069
501.6010	-0.0432
501.8700	-0.0513
502.1400	-0.0160
502.4090	-0.0060
502.6790	-0.0024
502.9480	-0.0102
503.2180	-0.0177
503.4870	0.0089
503.7570	0.0245
504.0260	-0.0418
504.2960	-0.0389
504.5650	-0.0460
504.8350	0.0092
505.1040	0.0121
505.3740	-0.0367
505.6430	-0.0217
505.9130	-0.0351
506.1820	-0.0416
506.4520	0.0017
506.7210	-0.0397
506.9910	-0.0723
507.2600	-0.0287
507.5300	-0.0134
507.7990	-0.0091
508.0690	-0.0075
508.3380	-0.0407
508.6080	-0.0215
508.8770	0.0009
509.1470	-0.0429
509.4160	-0.0325
509.6860	0.0035
509.9560	-0.0172
510.2250	-0.0305
510.4950	-0.0030
510.7640	-0.0127
511.0340	-0.0390
511.3030	-0.0544
511.5730	-0.0344
511.8420	-0.0142
512.1120	-0.0378
512.3810	-0.0400
512.6510	-0.0282
512.9200	-0.0195
513.1900	-0.0242
513.4590	-0.0261
513.7290	-0.0226
513.9980	-0.0140
514.2680	-0.0328
514.5370	-0.0778
514.8070	-0.0611
515.0760	-0.0457
515.3460	-0.0235
515.6150	-0.0198
515.8850	-0.0271
516.1540	-0.0240
516.4240	-0.0132
516.6930	-0.0200
516.9630	-0.0245
517.2320	-0.0453
517.5020	-0.0037
517.7710	0.0143
518.0410	-0.0411
518.3100	-0.0037
518.5800	-0.0016
518.8490	-0.0388
519.1190	-0.0291
519.3880	-0.0203
519.6580	-0.0143
519.9270	-0.0106
520.1970	0.0044
520.4660	-0.0022
520.7360	-0.0091
521.0050	-0.0461
521.2750	-0.0503
521.5440	-0.0257
521.8140	-0.0104
522.0840	-0.0092
522.3530	-0.0101
522.6230	0.0152
522.8920	-0.0074
523.1620	-0.0513
523.4310	-0.0601
523.7010	-0.0499
523.9700	-0.0261
524.2400	-0.0068
524.5090	-0.0328
524.7790	-0.0078
525.0480	0.0254
525.3180	-0.0045
525.5870	0.0097
525.8570	-0.0090
526.1260	-0.0175
526.3960	-0.0260
526.6650	-0.0115
526.9350	-0.0091
527.2040	-0.0185
527.4740	-0.0167
527.7430	-0.0395
528.0130	-0.0180
528.2820	0.0076
528.5520	0.0036
528.8210	-0.0193
529.0910	-0.0331
529.3600	0.0048
529.6300	-0.0178
529.8990	-0.0129
530.1690	-0.0123
530.4380	-0.0449
530.7080	-0.0627
530.9770	-0.0434
531.2470	-0.0376
531.5160	-0.0404
531.7860	-0.0269
532.0550	-0.0084
532.3250	-0.0353
532.5940	-0.0480
532.8640	-0.0339
533.1330	-0.0156
533.4030	0.0036
533.6720	0.0097
533.9420	-0.0368
534.2120	-0.0151
534.4810	0.0054
534.7510	-0.0114
535.0200	-0.0463
535.2900	-0.0470
535.5590	-0.0376
535.8290	-0.0414
536.0980	-0.0571
536.3680	-0.0390
536.6370	-0.0284
536.9070	-0.0425
537.1760	-0.0325
537.4460	-0.0507
537.7150	-0.0554
537.9850	-0.0557
538.2540	-0.0561
538.5240	-0.0451
538.7930	-0.0552
539.0630	-0.0016
539.3320	-0.0116
539.6020	-0.0327
539.8710	-0.0440
540.1410	-0.0540
540.4100	-0.0782
540.6800	-0.0408
540.9490	-0.0490
541.2190	-0.0484
541.4880	-0.0870
541.7580	-0.0905
542.0270	-0.0531
542.2970	-0.0214
542.5660	-0.0506
542.8360	-0.0095
543.1050	-0.0114
543.3750	-0.0227
543.6440	-0.0174
543.9140	-0.0158
544.1830	-0.0189
544.4530	-0.0600
544.7220	-0.0424
544.9920	-0.0005
545.2610	-0.0465
545.5310	-0.0681
545.8000	-0.0380
546.0700	-0.0330
546.3460	-0.0336
546.6220	-0.0379
546.8970	-0.0130
547.1730	-0.0270
547.4490	-0.0307
547.7250	-0.0292
548.0010	-0.0176
548.2760	-0.0605
548.5520	-0.0456
548.8280	-0.0164
549.1040	-0.0415
549.3800	-0.0443
549.6550	-0.0322
549.9310	-0.0467
550.2070	-0.0479
550.4830	-0.0359
550.7590	-0.0454
551.0340	-0.0204
551.3100	-0.0500
551.5860	-0.0561
551.8620	-0.0435
552.1380	-0.0031
552.4130	-0.0204
552.6890	-0.0234
552.9650	-0.0154
553.2410	-0.0225
553.5170	-0.0357
553.7930	-0.0311
554.0680	-0.0400
554.3440	-0.0259
554.6200	-0.0280
554.8960	-0.0164
555.1720	-0.0237
555.4470	-0.0422
555.7230	-0.0238
555.9990	-0.0050
556.2750	-0.0321
556.5510	-0.0434
556.8260	-0.0281
557.1020	-0.0186
557.3780	-0.0339
557.6540	-0.0297
557.9300	-0.0146
558.2050	-0.0475
558.4810	-0.0607
558.7570	-0.0405
559.0330	-0.0137
559.3090	-0.0663
559.5840	-0.0817
559.8600	-0.0467
560.1360	-0.0627
560.4120	-0.0674
560.6880	-0.0385
560.9630	-0.0600
561.2390	-0.0530
561.5150	-0.0345
561.7910	-0.0323
562.0670	-0.0425
562.3420	-0.0441
562.6180	-0.0213
562.8940	-0.0058
563.1700	-0.0661
563.4460	-0.0473
563.7210	-0.0189
563.9970	-0.0526
564.2730	-0.0635
564.5490	-0.0763
564.8250	-0.0614
565.1000	-0.0596
565.3760	-0.0425
565.6520	-0.0649
565.9280	-0.0678
566.2040	-0.0274
566.4790	-0.0389
566.7550	-0.0352
567.0310	-0.0271
567.3070	-0.0125
567.5830	-0.0418
567.8580	-0.0228
568.1340	-0.0141
568.4100	-0.0041
568.6860	-0.0297
568.9620	-0.0291
569.2370	-0.0557
569.5130	-0.0214
569.7890	-0.0392
570.0650	-0.0223
570.3410	-0.0180
570.6170	-0.0227
570.8920	-0.0305
571.1680	-0.0450
571.4440	-0.0619
571.7200	-0.0484
571.9960	-0.0531
572.2710	-0.0871
572.5470	-0.0444
572.8230	-0.0212
573.0990	-0.0580
573.3750	-0.1057
573.6500	-0.0611
573.9260	-0.0015
574.2020	-0.0206
574.4780	-0.0499
574.7540	-0.0480
575.0290	-0.0563
575.3050	-0.0654
575.5810	-0.0427
575.8570	-0.0166
576.1330	-0.0150
576.4080	-0.0484
576.6840	-0.0749
576.9600	-0.0610
577.2390	-0.0453
577.5170	-0.0251
577.7960	-0.0437
578.0750	-0.0739
578.3540	-0.0358
578.6320	-0.0022
578.9110	-0.0327
579.1900	-0.0814
579.4690	-0.0754
579.7470	-0.0613
580.0260	-0.0484
580.3050	-0.0192
580.5840	-0.0399
580.8620	-0.0113
581.1410	-0.0355
581.4200	-0.0571
581.6990	-0.0618
581.9770	-0.0824
582.2560	-0.0445
582.5350	-0.0542
582.8140	-0.0651
583.0920	-0.0785
583.3710	-0.0648
583.6500	-0.0632
583.9290	-0.0607
584.2070	-0.0500
584.4860	-0.0821
584.7650	-0.0677
585.0430	-0.0213
585.3220	-0.0773
585.6010	-0.0829
585.8800	-0.0620
586.1580	-0.0380
586.4370	-0.0175
586.7160	-0.0234
586.9950	-0.0507
587.2730	-0.0367
587.5520	-0.0234
587.8310	-0.0419
588.1100	-0.0382
588.3880	-0.0329
588.6670	-0.0144
588.9460	-0.0094
589.2250	-0.0014
589.5030	-0.0002
589.7820	-0.0115
590.0610	-0.0364
590.3400	-0.0440
590.6180	-0.0620
590.8970	-0.0867
591.1760	-0.0524
591.4550	-0.0609
591.7330	-0.0712
592.0120	-0.0200
592.2910	-0.0322
592.5700	-0.0525
592.8480	-0.0388
593.1270	-0.0360
593.4060	-0.0666
593.6840	-0.0184
593.9630	-0.0175
594.2420	-0.0389
594.5210	-0.0386
594.7990	-0.0344
595.0780	-0.0280
595.3570	-0.0220
595.6360	-0.0355
595.9140	-0.0650
596.1930	-0.0604
596.4720	-0.0132
596.7510	-0.0219
597.0290	-0.0513
597.3080	-0.0679
597.5870	-0.0270
597.8660	-0.0514
598.1440	-0.0625
598.4230	-0.0418
598.7020	-0.0124
598.9810	-0.0338
599.2590	-0.0450
599.5380	-0.0550
599.8170	-0.0400
